# distance  frequency (bands are separated by blank lines)
# End points of segments: 
#   0.00000000 0.17553980 
0.000000 -0.000000
0.000501 -0.002341
0.001003 -0.004669
0.001505 -0.006972
0.002006 -0.009238
0.002508 -0.011452
0.003009 -0.013602
0.003511 -0.015673
0.004012 -0.017650
0.004514 -0.019518
0.005015 -0.021259
0.005517 -0.022854
0.006019 -0.024283
0.006520 -0.025523
0.007022 -0.026546
0.007523 -0.027321
0.008025 -0.027811
0.008526 -0.027969
0.009028 -0.027734
0.009529 -0.027026
0.010031 -0.025727
0.010532 -0.023651
0.011034 -0.020456
0.011536 -0.015315
0.012037 -0.001704
0.012539 0.016775
0.013040 0.024970
0.013542 0.032072
0.014043 0.038757
0.014545 0.045272
0.015046 0.051737
0.015548 0.058217
0.016049 0.064755
0.016551 0.071377
0.017052 0.078102
0.017554 0.084941
0.018055 0.091905
0.018557 0.098999
0.019059 0.106230
0.019560 0.113599
0.020062 0.121111
0.020563 0.128765
0.021065 0.136565
0.021566 0.144510
0.022068 0.152601
0.022569 0.160837
0.023071 0.169219
0.023572 0.177746
0.024074 0.186418
0.024576 0.195234
0.025077 0.204192
0.025579 0.213293
0.026080 0.222535
0.026582 0.231916
0.027083 0.241437
0.027585 0.251095
0.028086 0.260889
0.028588 0.270818
0.029089 0.280880
0.029591 0.291075
0.030093 0.301401
0.030594 0.311855
0.031096 0.322438
0.031597 0.333147
0.032099 0.343981
0.032600 0.354938
0.033102 0.366017
0.033603 0.377217
0.034105 0.388535
0.034606 0.399970
0.035108 0.411521
0.035610 0.423187
0.036111 0.434964
0.036613 0.446853
0.037114 0.458852
0.037616 0.470958
0.038117 0.483171
0.038619 0.495488
0.039120 0.507909
0.039622 0.520432
0.040123 0.533054
0.040625 0.545776
0.041127 0.558594
0.041628 0.571508
0.042130 0.584517
0.042631 0.597617
0.043133 0.610809
0.043634 0.624091
0.044136 0.637461
0.044637 0.650917
0.045139 0.664458
0.045640 0.678083
0.046142 0.691791
0.046643 0.705579
0.047145 0.719446
0.047647 0.733391
0.048148 0.747413
0.048650 0.761510
0.049151 0.775681
0.049653 0.789924
0.050154 0.804237
0.050656 0.818621
0.051157 0.833072
0.051659 0.847591
0.052160 0.862175
0.052662 0.876823
0.053164 0.891534
0.053665 0.906306
0.054167 0.921139
0.054668 0.936031
0.055170 0.950980
0.055671 0.965986
0.056173 0.981047
0.056674 0.996162
0.057176 1.011330
0.057677 1.026549
0.058179 1.041818
0.058680 1.057137
0.059182 1.072503
0.059684 1.087916
0.060185 1.103374
0.060687 1.118877
0.061188 1.134423
0.061690 1.150011
0.062191 1.165640
0.062693 1.181308
0.063194 1.197016
0.063696 1.212761
0.064197 1.228542
0.064699 1.244358
0.065200 1.260209
0.065702 1.276093
0.066204 1.292010
0.066705 1.307957
0.067207 1.323934
0.067708 1.339941
0.068210 1.355975
0.068711 1.372037
0.069213 1.388124
0.069714 1.404237
0.070216 1.420373
0.070717 1.436532
0.071219 1.452714
0.071721 1.468916
0.072222 1.485138
0.072724 1.501380
0.073225 1.517640
0.073727 1.533917
0.074228 1.550210
0.074730 1.566519
0.075231 1.582842
0.075733 1.599179
0.076234 1.615528
0.076736 1.631889
0.077238 1.648262
0.077739 1.664644
0.078241 1.681035
0.078742 1.697434
0.079244 1.713841
0.079745 1.730254
0.080247 1.746673
0.080748 1.763097
0.081250 1.779524
0.081751 1.795955
0.082253 1.812388
0.082754 1.828823
0.083256 1.845258
0.083757 1.861693
0.084259 1.878127
0.084761 1.894559
0.085262 1.910989
0.085764 1.927415
0.086265 1.943837
0.086767 1.960254
0.087268 1.976665
0.087770 1.993070
0.088271 2.009467
0.088773 2.025856
0.089275 2.042237
0.089776 2.058607
0.090278 2.074967
0.090779 2.091316
0.091281 2.107653
0.091782 2.123978
0.092284 2.140289
0.092785 2.156585
0.093287 2.172867
0.093788 2.189133
0.094290 2.205382
0.094792 2.221615
0.095293 2.237829
0.095795 2.254024
0.096296 2.270201
0.096798 2.286357
0.097299 2.302492
0.097801 2.318605
0.098302 2.334696
0.098804 2.350764
0.099305 2.366808
0.099807 2.382828
0.100308 2.398822
0.100810 2.414790
0.101311 2.430732
0.101813 2.446645
0.102315 2.462531
0.102816 2.478387
0.103318 2.494214
0.103819 2.510011
0.104321 2.525776
0.104822 2.541509
0.105324 2.557210
0.105825 2.572877
0.106327 2.588510
0.106829 2.604108
0.107330 2.619670
0.107832 2.635196
0.108333 2.650685
0.108835 2.666136
0.109336 2.681548
0.109838 2.696921
0.110339 2.712253
0.110841 2.727545
0.111342 2.742794
0.111844 2.758001
0.112345 2.773165
0.112847 2.788285
0.113349 2.803359
0.113850 2.818388
0.114352 2.833371
0.114853 2.848306
0.115355 2.863193
0.115856 2.878031
0.116358 2.892819
0.116859 2.907557
0.117361 2.922243
0.117862 2.936876
0.118364 2.951457
0.118865 2.965983
0.119367 2.980455
0.119869 2.994870
0.120370 3.009229
0.120872 3.023531
0.121373 3.037773
0.121875 3.051957
0.122376 3.066080
0.122878 3.080142
0.123379 3.094141
0.123881 3.108077
0.124382 3.121949
0.124884 3.135756
0.125386 3.149497
0.125887 3.163171
0.126389 3.176776
0.126890 3.190313
0.127392 3.203779
0.127893 3.217173
0.128395 3.230496
0.128896 3.243745
0.129398 3.256919
0.129899 3.270018
0.130401 3.283040
0.130903 3.295984
0.131404 3.308849
0.131906 3.321634
0.132407 3.334338
0.132909 3.346959
0.133410 3.359496
0.133912 3.371948
0.134413 3.384314
0.134915 3.396592
0.135416 3.408782
0.135918 3.420881
0.136419 3.432889
0.136921 3.444804
0.137423 3.456625
0.137924 3.468351
0.138426 3.479980
0.138927 3.491511
0.139429 3.502942
0.139930 3.514272
0.140432 3.525499
0.140933 3.536622
0.141435 3.547640
0.141936 3.558551
0.142438 3.569354
0.142939 3.580046
0.143441 3.590627
0.143943 3.601095
0.144444 3.611448
0.144946 3.621685
0.145447 3.631803
0.145949 3.641802
0.146450 3.651680
0.146952 3.661435
0.147453 3.671066
0.147955 3.680570
0.148456 3.689946
0.148958 3.699192
0.149460 3.708307
0.149961 3.717289
0.150463 3.726136
0.150964 3.734846
0.151466 3.743418
0.151967 3.751850
0.152469 3.760140
0.152970 3.768286
0.153472 3.776287
0.153973 3.784140
0.154475 3.791844
0.154976 3.799397
0.155478 3.806798
0.155980 3.814044
0.156481 3.821134
0.156983 3.828067
0.157484 3.834839
0.157986 3.841450
0.158487 3.847898
0.158989 3.854181
0.159490 3.860297
0.159992 3.866245
0.160494 3.872023
0.160995 3.877630
0.161497 3.883063
0.161998 3.888322
0.162500 3.893404
0.163001 3.898309
0.163503 3.903034
0.164004 3.907578
0.164506 3.911941
0.165007 3.916119
0.165509 3.920113
0.166011 3.923921
0.166512 3.927541
0.167014 3.930973
0.167515 3.934214
0.168017 3.937265
0.168518 3.940125
0.169020 3.942791
0.169521 3.945264
0.170023 3.947542
0.170524 3.949624
0.171026 3.951511
0.171527 3.953201
0.172029 3.954693
0.172531 3.955988
0.173032 3.957084
0.173534 3.957981
0.174035 3.958679
0.174537 3.959178
0.175038 3.959478
0.175540 3.959578


0.000000 0.000000
0.000501 0.016434
0.001003 0.032866
0.001505 0.049298
0.002006 0.065728
0.002508 0.082155
0.003009 0.098578
0.003511 0.114998
0.004012 0.131413
0.004514 0.147823
0.005015 0.164227
0.005517 0.180625
0.006019 0.197015
0.006520 0.213398
0.007022 0.229772
0.007523 0.246137
0.008025 0.262492
0.008526 0.278836
0.009028 0.295170
0.009529 0.311492
0.010031 0.327802
0.010532 0.344099
0.011034 0.360382
0.011536 0.376651
0.012037 0.392905
0.012539 0.409144
0.013040 0.425366
0.013542 0.441572
0.014043 0.457761
0.014545 0.473932
0.015046 0.490084
0.015548 0.506217
0.016049 0.522331
0.016551 0.538424
0.017052 0.554497
0.017554 0.570548
0.018055 0.586577
0.018557 0.602583
0.019059 0.618567
0.019560 0.634526
0.020062 0.650462
0.020563 0.666372
0.021065 0.682257
0.021566 0.698116
0.022068 0.713949
0.022569 0.729755
0.023071 0.745533
0.023572 0.761283
0.024074 0.777004
0.024576 0.792697
0.025077 0.808359
0.025579 0.823992
0.026080 0.839594
0.026582 0.855165
0.027083 0.870704
0.027585 0.886212
0.028086 0.901686
0.028588 0.917128
0.029089 0.932536
0.029591 0.947910
0.030093 0.963250
0.030594 0.978555
0.031096 0.993824
0.031597 1.009058
0.032099 1.024256
0.032600 1.039417
0.033102 1.054541
0.033603 1.069627
0.034105 1.084676
0.034606 1.099686
0.035108 1.114658
0.035610 1.129591
0.036111 1.144484
0.036613 1.159337
0.037114 1.174151
0.037616 1.188923
0.038117 1.203655
0.038619 1.218345
0.039120 1.232994
0.039622 1.247601
0.040123 1.262166
0.040625 1.276687
0.041127 1.291166
0.041628 1.305602
0.042130 1.319994
0.042631 1.334342
0.043133 1.348645
0.043634 1.362904
0.044136 1.377119
0.044637 1.391288
0.045139 1.405411
0.045640 1.419489
0.046142 1.433521
0.046643 1.447507
0.047145 1.461446
0.047647 1.475338
0.048148 1.489183
0.048650 1.502981
0.049151 1.516731
0.049653 1.530433
0.050154 1.544088
0.050656 1.557694
0.051157 1.571251
0.051659 1.584760
0.052160 1.598220
0.052662 1.611630
0.053164 1.624991
0.053665 1.638303
0.054167 1.651565
0.054668 1.664776
0.055170 1.677938
0.055671 1.691049
0.056173 1.704109
0.056674 1.717118
0.057176 1.730077
0.057677 1.742984
0.058179 1.755840
0.058680 1.768644
0.059182 1.781397
0.059684 1.794098
0.060185 1.806747
0.060687 1.819343
0.061188 1.831887
0.061690 1.844379
0.062191 1.856818
0.062693 1.869204
0.063194 1.881537
0.063696 1.893817
0.064197 1.906044
0.064699 1.918217
0.065200 1.930336
0.065702 1.942402
0.066204 1.954414
0.066705 1.966372
0.067207 1.978276
0.067708 1.990126
0.068210 2.001921
0.068711 2.013662
0.069213 2.025349
0.069714 2.036980
0.070216 2.048557
0.070717 2.060078
0.071219 2.071545
0.071721 2.082956
0.072222 2.094312
0.072724 2.105612
0.073225 2.116857
0.073727 2.128046
0.074228 2.139180
0.074730 2.150257
0.075231 2.161279
0.075733 2.172244
0.076234 2.183153
0.076736 2.194006
0.077238 2.204802
0.077739 2.215542
0.078241 2.226225
0.078742 2.236852
0.079244 2.247421
0.079745 2.257934
0.080247 2.268389
0.080748 2.278788
0.081250 2.289129
0.081751 2.299413
0.082253 2.309639
0.082754 2.319808
0.083256 2.329920
0.083757 2.339973
0.084259 2.349969
0.084761 2.359907
0.085262 2.369787
0.085764 2.379610
0.086265 2.389373
0.086767 2.399079
0.087268 2.408726
0.087770 2.418316
0.088271 2.427846
0.088773 2.437318
0.089275 2.446731
0.089776 2.456086
0.090278 2.465382
0.090779 2.474619
0.091281 2.483797
0.091782 2.492916
0.092284 2.501976
0.092785 2.510977
0.093287 2.519919
0.093788 2.528801
0.094290 2.537624
0.094792 2.546388
0.095293 2.555092
0.095795 2.563737
0.096296 2.572322
0.096798 2.580847
0.097299 2.589313
0.097801 2.597719
0.098302 2.606065
0.098804 2.614351
0.099305 2.622577
0.099807 2.630744
0.100308 2.638850
0.100810 2.646896
0.101311 2.654882
0.101813 2.662808
0.102315 2.670674
0.102816 2.678480
0.103318 2.686225
0.103819 2.693911
0.104321 2.701535
0.104822 2.709100
0.105324 2.716604
0.105825 2.724048
0.106327 2.731431
0.106829 2.738754
0.107330 2.746017
0.107832 2.753219
0.108333 2.760361
0.108835 2.767442
0.109336 2.774463
0.109838 2.781424
0.110339 2.788324
0.110841 2.795164
0.111342 2.801943
0.111844 2.808662
0.112345 2.815320
0.112847 2.821919
0.113349 2.828457
0.113850 2.834934
0.114352 2.841351
0.114853 2.847709
0.115355 2.854005
0.115856 2.860242
0.116358 2.866419
0.116859 2.872535
0.117361 2.878592
0.117862 2.884589
0.118364 2.890525
0.118865 2.896402
0.119367 2.902219
0.119869 2.907977
0.120370 2.913675
0.120872 2.919313
0.121373 2.924892
0.121875 2.930411
0.122376 2.935871
0.122878 2.941272
0.123379 2.946614
0.123881 2.951896
0.124382 2.957120
0.124884 2.962285
0.125386 2.967391
0.125887 2.972438
0.126389 2.977427
0.126890 2.982358
0.127392 2.987230
0.127893 2.992045
0.128395 2.996801
0.128896 3.001499
0.129398 3.006139
0.129899 3.010722
0.130401 3.015248
0.130903 3.019716
0.131404 3.024126
0.131906 3.028480
0.132407 3.032777
0.132909 3.037017
0.133410 3.041200
0.133912 3.045327
0.134413 3.049398
0.134915 3.053412
0.135416 3.057371
0.135918 3.061274
0.136419 3.065121
0.136921 3.068912
0.137423 3.072649
0.137924 3.076330
0.138426 3.079956
0.138927 3.083527
0.139429 3.087044
0.139930 3.090507
0.140432 3.093915
0.140933 3.097269
0.141435 3.100569
0.141936 3.103816
0.142438 3.107009
0.142939 3.110149
0.143441 3.113236
0.143943 3.116269
0.144444 3.119250
0.144946 3.122179
0.145447 3.125055
0.145949 3.127879
0.146450 3.130651
0.146952 3.133371
0.147453 3.136040
0.147955 3.138657
0.148456 3.141223
0.148958 3.143738
0.149460 3.146202
0.149961 3.148615
0.150463 3.150978
0.150964 3.153291
0.151466 3.155553
0.151967 3.157766
0.152469 3.159929
0.152970 3.162042
0.153472 3.164106
0.153973 3.166121
0.154475 3.168087
0.154976 3.170004
0.155478 3.171872
0.155980 3.173691
0.156481 3.175463
0.156983 3.177186
0.157484 3.178861
0.157986 3.180488
0.158487 3.182068
0.158989 3.183600
0.159490 3.185084
0.159992 3.186521
0.160494 3.187912
0.160995 3.189255
0.161497 3.190551
0.161998 3.191801
0.162500 3.193003
0.163001 3.194160
0.163503 3.195270
0.164004 3.196334
0.164506 3.197352
0.165007 3.198324
0.165509 3.199249
0.166011 3.200129
0.166512 3.200964
0.167014 3.201752
0.167515 3.202496
0.168017 3.203193
0.168518 3.203846
0.169020 3.204453
0.169521 3.205014
0.170023 3.205531
0.170524 3.206003
0.171026 3.206429
0.171527 3.206810
0.172029 3.207147
0.172531 3.207438
0.173032 3.207685
0.173534 3.207887
0.174035 3.208044
0.174537 3.208156
0.175038 3.208223
0.175540 3.208245


0.000000 0.000000
0.000501 0.025863
0.001003 0.051724
0.001505 0.077584
0.002006 0.103442
0.002508 0.129296
0.003009 0.155146
0.003511 0.180991
0.004012 0.206831
0.004514 0.232664
0.005015 0.258489
0.005517 0.284307
0.006019 0.310115
0.006520 0.335913
0.007022 0.361701
0.007523 0.387477
0.008025 0.413241
0.008526 0.438992
0.009028 0.464729
0.009529 0.490451
0.010031 0.516157
0.010532 0.541848
0.011034 0.567521
0.011536 0.593175
0.012037 0.618812
0.012539 0.644428
0.013040 0.670024
0.013542 0.695599
0.014043 0.721152
0.014545 0.746682
0.015046 0.772188
0.015548 0.797670
0.016049 0.823126
0.016551 0.848557
0.017052 0.873960
0.017554 0.899337
0.018055 0.924684
0.018557 0.950002
0.019059 0.975291
0.019560 1.000548
0.020062 1.025774
0.020563 1.050968
0.021065 1.076128
0.021566 1.101254
0.022068 1.126346
0.022569 1.151402
0.023071 1.176422
0.023572 1.201405
0.024074 1.226350
0.024576 1.251256
0.025077 1.276123
0.025579 1.300950
0.026080 1.325736
0.026582 1.350481
0.027083 1.375182
0.027585 1.399841
0.028086 1.424456
0.028588 1.449026
0.029089 1.473551
0.029591 1.498029
0.030093 1.522461
0.030594 1.546844
0.031096 1.571180
0.031597 1.595466
0.032099 1.619702
0.032600 1.643888
0.033102 1.668023
0.033603 1.692105
0.034105 1.716134
0.034606 1.740110
0.035108 1.764032
0.035610 1.787898
0.036111 1.811709
0.036613 1.835464
0.037114 1.859161
0.037616 1.882800
0.038117 1.906381
0.038619 1.929903
0.039120 1.953364
0.039622 1.976765
0.040123 2.000105
0.040625 2.023382
0.041127 2.046597
0.041628 2.069748
0.042130 2.092835
0.042631 2.115857
0.043133 2.138814
0.043634 2.161704
0.044136 2.184528
0.044637 2.207284
0.045139 2.229972
0.045640 2.252590
0.046142 2.275140
0.046643 2.297618
0.047145 2.320026
0.047647 2.342363
0.048148 2.364627
0.048650 2.386818
0.049151 2.408935
0.049653 2.430978
0.050154 2.452946
0.050656 2.474839
0.051157 2.496655
0.051659 2.518395
0.052160 2.540057
0.052662 2.561641
0.053164 2.583145
0.053665 2.604571
0.054167 2.625916
0.054668 2.647180
0.055170 2.668363
0.055671 2.689464
0.056173 2.710483
0.056674 2.731417
0.057176 2.752268
0.057677 2.773035
0.058179 2.793716
0.058680 2.814311
0.059182 2.834819
0.059684 2.855240
0.060185 2.875574
0.060687 2.895819
0.061188 2.915975
0.061690 2.936041
0.062191 2.956017
0.062693 2.975902
0.063194 2.995695
0.063696 3.015396
0.064197 3.035004
0.064699 3.054519
0.065200 3.073940
0.065702 3.093265
0.066204 3.112496
0.066705 3.131630
0.067207 3.150668
0.067708 3.169608
0.068210 3.188450
0.068711 3.207194
0.069213 3.225839
0.069714 3.244384
0.070216 3.262828
0.070717 3.281171
0.071219 3.299412
0.071721 3.317551
0.072222 3.335587
0.072724 3.353520
0.073225 3.371348
0.073727 3.389071
0.074228 3.406688
0.074730 3.424200
0.075231 3.441604
0.075733 3.458901
0.076234 3.476089
0.076736 3.493169
0.077238 3.510140
0.077739 3.527000
0.078241 3.543749
0.078742 3.560388
0.079244 3.576914
0.079745 3.593327
0.080247 3.609627
0.080748 3.625813
0.081250 3.641884
0.081751 3.657840
0.082253 3.673680
0.082754 3.689403
0.083256 3.705009
0.083757 3.720497
0.084259 3.735866
0.084761 3.751117
0.085262 3.766247
0.085764 3.781256
0.086265 3.796145
0.086767 3.810912
0.087268 3.825556
0.087770 3.840077
0.088271 3.854474
0.088773 3.868746
0.089275 3.882894
0.089776 3.896916
0.090278 3.910812
0.090779 3.924580
0.091281 3.938221
0.091782 3.951734
0.092284 3.965118
0.092785 3.978373
0.093287 3.991497
0.093788 4.004491
0.094290 4.017354
0.094792 4.030085
0.095293 4.042684
0.095795 4.055150
0.096296 4.067483
0.096798 4.079681
0.097299 4.091745
0.097801 4.103674
0.098302 4.115468
0.098804 4.127125
0.099305 4.138647
0.099807 4.150031
0.100308 4.161278
0.100810 4.172387
0.101311 4.183358
0.101813 4.194191
0.102315 4.204885
0.102816 4.215439
0.103318 4.225854
0.103819 4.236130
0.104321 4.246265
0.104822 4.256260
0.105324 4.266114
0.105825 4.275828
0.106327 4.285400
0.106829 4.294832
0.107330 4.304123
0.107832 4.313272
0.108333 4.322280
0.108835 4.331147
0.109336 4.339873
0.109838 4.348458
0.110339 4.356901
0.110841 4.365204
0.111342 4.373366
0.111844 4.381388
0.112345 4.389269
0.112847 4.397010
0.113349 4.404611
0.113850 4.412073
0.114352 4.419397
0.114853 4.426582
0.115355 4.433628
0.115856 4.440538
0.116358 4.447311
0.116859 4.453947
0.117361 4.460448
0.117862 4.466814
0.118364 4.473046
0.118865 4.479144
0.119367 4.485110
0.119869 4.490945
0.120370 4.496649
0.120872 4.502223
0.121373 4.507668
0.121875 4.512986
0.122376 4.518177
0.122878 4.523242
0.123379 4.528184
0.123881 4.533002
0.124382 4.537698
0.124884 4.542274
0.125386 4.546731
0.125887 4.551069
0.126389 4.555291
0.126890 4.559398
0.127392 4.563392
0.127893 4.567273
0.128395 4.571043
0.128896 4.574705
0.129398 4.578259
0.129899 4.581706
0.130401 4.585050
0.130903 4.588291
0.131404 4.591430
0.131906 4.594471
0.132407 4.597413
0.132909 4.600260
0.133410 4.603012
0.133912 4.605672
0.134413 4.608240
0.134915 4.610720
0.135416 4.613113
0.135918 4.615420
0.136419 4.617643
0.136921 4.619785
0.137423 4.621846
0.137924 4.623829
0.138426 4.625735
0.138927 4.627567
0.139429 4.629325
0.139930 4.631012
0.140432 4.632630
0.140933 4.634180
0.141435 4.635665
0.141936 4.637085
0.142438 4.638442
0.142939 4.639739
0.143441 4.640977
0.143943 4.642158
0.144444 4.643283
0.144946 4.644354
0.145447 4.645373
0.145949 4.646341
0.146450 4.647260
0.146952 4.648132
0.147453 4.648958
0.147955 4.649740
0.148456 4.650479
0.148958 4.651177
0.149460 4.651836
0.149961 4.652456
0.150463 4.653039
0.150964 4.653587
0.151466 4.654101
0.151967 4.654582
0.152469 4.655033
0.152970 4.655453
0.153472 4.655845
0.153973 4.656210
0.154475 4.656548
0.154976 4.656862
0.155478 4.657152
0.155980 4.657420
0.156481 4.657667
0.156983 4.657893
0.157484 4.658100
0.157986 4.658289
0.158487 4.658462
0.158989 4.658618
0.159490 4.658759
0.159992 4.658886
0.160494 4.659000
0.160995 4.659101
0.161497 4.659191
0.161998 4.659271
0.162500 4.659341
0.163001 4.659401
0.163503 4.659454
0.164004 4.659498
0.164506 4.659536
0.165007 4.659568
0.165509 4.659594
0.166011 4.659615
0.166512 4.659631
0.167014 4.659644
0.167515 4.659653
0.168017 4.659659
0.168518 4.659663
0.169020 4.659664
0.169521 4.659664
0.170023 4.659663
0.170524 4.659661
0.171026 4.659657
0.171527 4.659654
0.172029 4.659650
0.172531 4.659647
0.173032 4.659643
0.173534 4.659640
0.174035 4.659638
0.174537 4.659636
0.175038 4.659635
0.175540 4.659634


0.000000 4.901754
0.000501 4.901766
0.001003 4.901802
0.001505 4.901863
0.002006 4.901948
0.002508 4.902058
0.003009 4.902192
0.003511 4.902350
0.004012 4.902532
0.004514 4.902739
0.005015 4.902970
0.005517 4.903225
0.006019 4.903504
0.006520 4.903807
0.007022 4.904134
0.007523 4.904485
0.008025 4.904860
0.008526 4.905259
0.009028 4.905682
0.009529 4.906129
0.010031 4.906599
0.010532 4.907092
0.011034 4.907610
0.011536 4.908150
0.012037 4.908714
0.012539 4.909301
0.013040 4.909912
0.013542 4.910545
0.014043 4.911202
0.014545 4.911881
0.015046 4.912583
0.015548 4.913307
0.016049 4.914054
0.016551 4.914824
0.017052 4.915616
0.017554 4.916430
0.018055 4.917266
0.018557 4.918123
0.019059 4.919003
0.019560 4.919904
0.020062 4.920827
0.020563 4.921771
0.021065 4.922736
0.021566 4.923723
0.022068 4.924730
0.022569 4.925758
0.023071 4.926807
0.023572 4.927876
0.024074 4.928965
0.024576 4.930074
