# distance  frequency (bands are separated by blank lines)
# End points of segments: 
#   0.00000000 0.10134790 
0.000000  3.193809 
0.001014  3.194138 
0.002027  3.195126 
0.003040  3.196769 
0.004054  3.199065 
0.005067  3.202008 
0.006081  3.205593 
0.007094  3.209812 
0.008108  3.214655 
0.009121  3.220114 
0.010135  3.226175 
0.011148  3.232827 
0.012162  3.240055 
0.013175  3.247844 
0.014189  3.256178 
0.015202  3.265040 
0.016216  3.274410 
0.017229  3.284269 
0.018243  3.294596 
0.019256  3.305369 
0.020270  3.316566 
0.021283  3.328162 
0.022297  3.340133 
0.023310  3.352453 
0.024324  3.365095 
0.025337  3.378030 
0.026350  3.391231 
0.027364  3.404666 
0.028377  3.418306 
0.029391  3.432117 
0.030404  3.446066 
0.031418  3.460119 
0.032431  3.474239 
0.033445  3.488391 
0.034458  3.502534 
0.035472  3.516630 
0.036485  3.530637 
0.037499  3.544511 
0.038512  3.558210 
0.039526  3.571686 
0.040539  3.584893 
0.041553  3.597782 
0.042566  3.610305 
0.043580  3.622411 
0.044593  3.634050 
0.045607  3.645172 
0.046620  3.655727 
0.047634  3.665669 
0.048647  3.674950 
0.049661  3.683531 
0.050674  3.691372 
0.051687  3.698441 
0.052701  3.704712 
0.053714  3.710165 
0.054728  3.714790 
0.055741  3.718581 
0.056755  3.721545 
0.057768  3.723693 
0.058782  3.725046 
0.059795  3.725631 
0.060809  3.725483 
0.061822  3.724641 
0.062836  3.723146 
0.063849  3.721048 
0.064863  3.718393 
0.065876  3.715231 
0.066890  3.711615 
0.067903  3.707593 
0.068917  3.703216 
0.069930  3.698530 
0.070944  3.693584 
0.071957  3.688422 
0.072970  3.683087 
0.073984  3.677620 
0.074997  3.672058 
0.076011  3.666439 
0.077024  3.660797 
0.078038  3.655164 
0.079051  3.649571 
0.080065  3.644046 
0.081078  3.638616 
0.082092  3.633305 
0.083105  3.628137 
0.084119  3.623133 
0.085132  3.618314 
0.086146  3.613697 
0.087159  3.609301 
0.088173  3.605140 
0.089186  3.601231 
0.090200  3.597585 
0.091213  3.594216 
0.092227  3.591134 
0.093240  3.588349 
0.094254  3.585870 
0.095267  3.583705 
0.096281  3.581861 
0.097294  3.580344 
0.098308  3.579158 
0.099321  3.578308 
0.100334  3.577796 
0.101348  3.577625 


0.000000  3.953928 
0.001014  3.953887 
0.002027  3.953763 
0.003040  3.953557 
0.004054  3.953271 
0.005067  3.952907 
0.006081  3.952466 
0.007094  3.951952 
0.008108  3.951369 
0.009121  3.950719 
0.010135  3.950008 
0.011148  3.949239 
0.012162  3.948419 
0.013175  3.947552 
0.014189  3.946644 
0.015202  3.945701 
0.016216  3.944729 
0.017229  3.943735 
0.018243  3.942725 
0.019256  3.941705 
0.020270  3.940683 
0.021283  3.939666 
0.022297  3.938659 
0.023310  3.937671 
0.024324  3.936708 
0.025337  3.935776 
0.026350  3.934883 
0.027364  3.934034 
0.028377  3.933237 
0.029391  3.932498 
0.030404  3.931822 
0.031418  3.931216 
0.032431  3.930685 
0.033445  3.930235 
0.034458  3.929870 
0.035472  3.929596 
0.036485  3.929418 
0.037499  3.929339 
0.038512  3.929364 
0.039526  3.929496 
0.040539  3.929739 
0.041553  3.930096 
0.042566  3.930569 
0.043580  3.931162 
0.044593  3.931875 
0.045607  3.932711 
0.046620  3.933671 
0.047634  3.934756 
0.048647  3.935966 
0.049661  3.937302 
0.050674  3.938764 
0.051687  3.940351 
0.052701  3.942061 
0.053714  3.943895 
0.054728  3.945850 
0.055741  3.947925 
0.056755  3.950116 
0.057768  3.952422 
0.058782  3.954839 
0.059795  3.957363 
0.060809  3.959991 
0.061822  3.962718 
0.062836  3.965540 
0.063849  3.968453 
0.064863  3.971449 
0.065876  3.974525 
0.066890  3.977674 
0.067903  3.980889 
0.068917  3.984165 
0.069930  3.987493 
0.070944  3.990866 
0.071957  3.994278 
0.072970  3.997719 
0.073984  4.001181 
0.074997  4.004657 
0.076011  4.008136 
0.077024  4.011610 
0.078038  4.015069 
0.079051  4.018504 
0.080065  4.021904 
0.081078  4.025260 
0.082092  4.028560 
0.083105  4.031795 
0.084119  4.034953 
0.085132  4.038024 
0.086146  4.040997 
0.087159  4.043860 
0.088173  4.046601 
0.089186  4.049211 
0.090200  4.051676 
0.091213  4.053986 
0.092227  4.056129 
0.093240  4.058093 
0.094254  4.059868 
0.095267  4.061442 
0.096281  4.062803 
0.097294  4.063941 
0.098308  4.064844 
0.099321  4.065502 
0.100334  4.065904 
0.101348  4.066041 


0.000000  4.644968 
0.001014  4.644805 
0.002027  4.644315 
0.003040  4.643499 
0.004054  4.642358 
0.005067  4.640896 
0.006081  4.639113 
0.007094  4.637013 
0.008108  4.634600 
0.009121  4.631878 
0.010135  4.628852 
0.011148  4.625527 
0.012162  4.621909 
0.013175  4.618005 
0.014189  4.613821 
0.015202  4.609367 
0.016216  4.604651 
0.017229  4.599681 
0.018243  4.594469 
0.019256  4.589025 
0.020270  4.583361 
0.021283  4.577489 
0.022297  4.571423 
0.023310  4.565177 
0.024324  4.558766 
0.025337  4.552208 
0.026350  4.545518 
0.027364  4.538717 
0.028377  4.531824 
0.029391  4.524861 
0.030404  4.517849 
0.031418  4.510813 
0.032431  4.503779 
0.033445  4.496773 
0.034458  4.489825 
0.035472  4.482966 
0.036485  4.476228 
0.037499  4.469645 
0.038512  4.463254 
0.039526  4.457093 
0.040539  4.451202 
0.041553  4.445621 
0.042566  4.440395 
0.043580  4.435567 
0.044593  4.431182 
0.045607  4.427285 
0.046620  4.423920 
0.047634  4.421131 
0.048647  4.418960 
0.049661  4.417444 
0.050674  4.416617 
0.051687  4.416511 
0.052701  4.417148 
0.053714  4.418545 
0.054728  4.420711 
0.055741  4.423649 
0.056755  4.427352 
0.057768  4.431805 
0.058782  4.436987 
0.059795  4.442868 
0.060809  4.449414 
0.061822  4.456584 
0.062836  4.464333 
0.063849  4.472613 
0.064863  4.481374 
0.065876  4.490565 
0.066890  4.500132 
0.067903  4.510024 
0.068917  4.520189 
0.069930  4.530575 
0.070944  4.541134 
0.071957  4.551817 
0.072970  4.562577 
0.073984  4.573371 
0.074997  4.584154 
0.076011  4.594886 
0.077024  4.605527 
0.078038  4.616039 
0.079051  4.626385 
0.080065  4.636531 
0.081078  4.646443 
0.082092  4.656089 
0.083105  4.665437 
0.084119  4.674459 
0.085132  4.683127 
0.086146  4.691412 
0.087159  4.699291 
0.088173  4.706737 
0.089186  4.713729 
0.090200  4.720245 
0.091213  4.726264 
0.092227  4.731769 
0.093240  4.736741 
0.094254  4.741165 
0.095267  4.745028 
0.096281  4.748317 
0.097294  4.751023 
0.098308  4.753136 
0.099321  4.754650 
0.100334  4.755560 
0.101348  4.755864 


0.000000  5.348117 
0.001014  5.348311 
0.002027  5.348893 
0.003040  5.349861 
0.004054  5.351214 
0.005067  5.352949 
0.006081  5.355064 
0.007094  5.357553 
0.008108  5.360413 
0.009121  5.363637 
0.010135  5.367221 
0.011148  5.371158 
0.012162  5.375441 
0.013175  5.380062 
0.014189  5.385013 
0.015202  5.390286 
0.016216  5.395871 
0.017229  5.401759 
0.018243  5.407941 
0.019256  5.414406 
0.020270  5.421144 
0.021283  5.428144 
0.022297  5.435394 
0.023310  5.442885 
0.024324  5.450604 
0.025337  5.458540 
0.026350  5.466681 
0.027364  5.475014 
0.028377  5.483529 
0.029391  5.492212 
0.030404  5.501052 
0.031418  5.510036 
0.032431  5.519152 
0.033445  5.528386 
0.034458  5.537727 
0.035472  5.547162 
0.036485  5.556677 
0.037499  5.566259 
0.038512  5.575897 
0.039526  5.585575 
0.040539  5.595281 
0.041553  5.605000 
0.042566  5.614719 
0.043580  5.624423 
0.044593  5.634097 
0.045607  5.643725 
0.046620  5.653290 
0.047634  5.662776 
0.048647  5.672164 
0.049661  5.681434 
0.050674  5.690564 
0.051687  5.699530 
0.052701  5.708307 
0.053714  5.716864 
0.054728  5.725170 
0.055741  5.733187 
0.056755  5.740872 
0.057768  5.748180 
0.058782  5.755058 
0.059795  5.761450 
0.060809  5.767297 
0.061822  5.772542 
0.062836  5.777131 
0.063849  5.781025 
0.064863  5.784202 
0.065876  5.786659 
0.066890  5.788420 
0.067903  5.789528 
0.068917  5.790043 
0.069930  5.790034 
0.070944  5.789572 
0.071957  5.788727 
0.072970  5.787565 
0.073984  5.786142 
0.074997  5.784510 
0.076011  5.782714 
0.077024  5.780792 
0.078038  5.778778 
0.079051  5.776699 
0.080065  5.774582 
0.081078  5.772447 
0.082092  5.770314 
0.083105  5.768200 
0.084119  5.766120 
0.085132  5.764089 
0.086146  5.762118 
0.087159  5.760220 
0.088173  5.758404 
0.089186  5.756681 
0.090200  5.755060 
0.091213  5.753548 
0.092227  5.752155 
0.093240  5.750885 
0.094254  5.749748 
0.095267  5.748747 
0.096281  5.747890 
0.097294  5.747180 
0.098308  5.746623 
0.099321  5.746221 
0.100334  5.745978 
0.101348  5.745897 


0.000000  5.994528 
0.001014  5.994491 
0.002027  5.994378 
0.003040  5.994190 
0.004054  5.993927 
0.005067  5.993589 
0.006081  5.993176 
0.007094  5.992689 
0.008108  5.992127 
0.009121  5.991490 
0.010135  5.990779 
0.011148  5.989995 
0.012162  5.989136 
0.013175  5.988204 
0.014189  5.987200 
0.015202  5.986122 
0.016216  5.984972 
0.017229  5.983751 
0.018243  5.982458 
0.019256  5.981094 
0.020270  5.979661 
0.021283  5.978157 
0.022297  5.976586 
0.023310  5.974946 
0.024324  5.973240 
0.025337  5.971467 
0.026350  5.969629 
0.027364  5.967728 
0.028377  5.965765 
0.029391  5.963740 
0.030404  5.961655 
0.031418  5.959513 
0.032431  5.957315 
0.033445  5.955062 
0.034458  5.952758 
0.035472  5.950405 
0.036485  5.948004 
0.037499  5.945560 
0.038512  5.943075 
0.039526  5.940554 
0.040539  5.937999 
0.041553  5.935416 
0.042566  5.932810 
0.043580  5.930186 
0.044593  5.927551 
0.045607  5.924911 
0.046620  5.922276 
0.047634  5.919654 
0.048647  5.917057 
0.049661  5.914496 
0.050674  5.911987 
0.051687  5.909546 
0.052701  5.907193 
0.053714  5.904950 
0.054728  5.902845 
0.055741  5.900910 
0.056755  5.899180 
0.057768  5.897697 
0.058782  5.896509 
0.059795  5.895668 
0.060809  5.895228 
0.061822  5.895243 
0.062836  5.895763 
0.063849  5.896824 
0.064863  5.898446 
0.065876  5.900629 
0.066890  5.903347 
0.067903  5.906555 
0.068917  5.910192 
0.069930  5.914189 
0.070944  5.918473 
0.071957  5.922974 
0.072970  5.927628 
0.073984  5.932377 
0.074997  5.937170 
0.076011  5.941965 
0.077024  5.946723 
0.078038  5.951414 
0.079051  5.956012 
0.080065  5.960493 
0.081078  5.964838 
0.082092  5.969032 
0.083105  5.973061 
0.084119  5.976912 
0.085132  5.980575 
0.086146  5.984043 
0.087159  5.987307 
0.088173  5.990362 
0.089186  5.993203 
0.090200  5.995824 
0.091213  5.998223 
0.092227  6.000396 
0.093240  6.002342 
0.094254  6.004058 
0.095267  6.004108 
0.096281  6.002224 
0.097294  6.000679 
0.098308  5.999478 
0.099321  5.998621 
0.100334  5.998108 
0.101348  5.997938 


0.000000  6.439363 
0.001014  6.439290 
0.002027  6.439070 
0.003040  6.438705 
0.004054  6.438192 
0.005067  6.437534 
0.006081  6.436730 
0.007094  6.435780 
0.008108  6.434685 
0.009121  6.433444 
0.010135  6.432058 
0.011148  6.430528 
0.012162  6.428853 
0.013175  6.427035 
0.014189  6.425074 
0.015202  6.422969 
0.016216  6.420722 
0.017229  6.418333 
0.018243  6.415803 
0.019256  6.413133 
0.020270  6.410322 
0.021283  6.407372 
0.022297  6.404283 
0.023310  6.401057 
0.024324  6.397693 
0.025337  6.394194 
0.026350  6.390559 
0.027364  6.386789 
0.028377  6.382886 
0.029391  6.378851 
0.030404  6.374685 
0.031418  6.370388 
0.032431  6.365963 
0.033445  6.361409 
0.034458  6.356730 
0.035472  6.351926 
0.036485  6.346998 
0.037499  6.341949 
0.038512  6.336780 
0.039526  6.331492 
0.040539  6.326089 
0.041553  6.320571 
0.042566  6.314942 
0.043580  6.309203 
0.044593  6.303356 
0.045607  6.297406 
0.046620  6.291353 
0.047634  6.285202 
0.048647  6.278956 
0.049661  6.272617 
0.050674  6.266190 
0.051687  6.259678 
0.052701  6.253085 
0.053714  6.246416 
0.054728  6.239675 
0.055741  6.232867 
0.056755  6.225997 
0.057768  6.219070 
0.058782  6.212093 
0.059795  6.205070 
0.060809  6.198009 
0.061822  6.190917 
0.062836  6.183799 
0.063849  6.176665 
0.064863  6.169521 
0.065876  6.162375 
0.066890  6.155237 
0.067903  6.148115 
0.068917  6.141019 
0.069930  6.133959 
0.070944  6.126944 
0.071957  6.119986 
0.072970  6.113095 
0.073984  6.106283 
0.074997  6.099561 
0.076011  6.092943 
0.077024  6.086440 
0.078038  6.080065 
0.079051  6.073831 
0.080065  6.067752 
0.081078  6.061841 
0.082092  6.056113 
0.083105  6.050579 
0.084119  6.045255 
0.085132  6.040153 
0.086146  6.035288 
0.087159  6.030672 
0.088173  6.026318 
0.089186  6.022238 
0.090200  6.018444 
0.091213  6.014946 
0.092227  6.011755 
0.093240  6.008880 
0.094254  6.006329 
0.095267  6.005545 
0.096281  6.006800 
0.097294  6.007825 
0.098308  6.008620 
0.099321  6.009186 
0.100334  6.009523 
0.101348  6.009636 


0.000000  8.256599 
0.001014  8.256603 
0.002027  8.256615 
0.003040  8.256635 
0.004054  8.256661 
0.005067  8.256694 
0.006081  8.256732 
0.007094  8.256774 
0.008108  8.256817 
0.009121  8.256862 
0.010135  8.256905 
0.011148  8.256945 
0.012162  8.256979 
0.013175  8.257005 
0.014189  8.257020 
0.015202  8.257022 
0.016216  8.257008 
0.017229  8.256975 
0.018243  8.256920 
0.019256  8.256841 
0.020270  8.256733 
0.021283  8.256594 
0.022297  8.256421 
0.023310  8.256212 
0.024324  8.255962 
0.025337  8.255669 
0.026350  8.255331 
0.027364  8.254945 
0.028377  8.254508 
0.029391  8.254018 
0.030404  8.253472 
0.031418  8.252868 
0.032431  8.252206 
0.033445  8.251482 
0.034458  8.250696 
0.035472  8.249846 
0.036485  8.248931 
0.037499  8.247950 
0.038512  8.246904 
0.039526  8.245791 
0.040539  8.244612 
0.041553  8.243366 
0.042566  8.242055 
0.043580  8.240679 
0.044593  8.239239 
0.045607  8.237736 
0.046620  8.236172 
0.047634  8.234547 
0.048647  8.232865 
0.049661  8.231127 
0.050674  8.229335 
0.051687  8.227492 
0.052701  8.225600 
0.053714  8.223663 
0.054728  8.221683 
0.055741  8.219663 
0.056755  8.217606 
0.057768  8.215517 
0.058782  8.213398 
0.059795  8.211253 
0.060809  8.209085 
0.061822  8.206899 
0.062836  8.204699 
0.063849  8.202487 
0.064863  8.200269 
0.065876  8.198048 
0.066890  8.195828 
0.067903  8.193613 
0.068917  8.191407 
0.069930  8.189215 
0.070944  8.187040 
0.071957  8.184887 
0.072970  8.182759 
0.073984  8.180660 
0.074997  8.178596 
0.076011  8.176568 
0.077024  8.174582 
0.078038  8.172641 
0.079051  8.170749 
0.080065  8.168909 
0.081078  8.167126 
0.082092  8.165402 
0.083105  8.163742 
0.084119  8.162148 
0.085132  8.160624 
0.086146  8.159173 
0.087159  8.157798 
0.088173  8.156502 
0.089186  8.155289 
0.090200  8.154159 
0.091213  8.153118 
0.092227  8.152166 
0.093240  8.151306 
0.094254  8.150540 
0.095267  8.149871 
0.096281  8.149301 
0.097294  8.148831 
0.098308  8.148462 
0.099321  8.148198 
0.100334  8.148038 
0.101348  8.147984 


0.000000  8.726367 
0.001014  8.726394 
0.002027  8.726475 
0.003040  8.726609 
0.004054  8.726798 
0.005067  8.727041 
0.006081  8.727340 
0.007094  8.727693 
0.008108  8.728102 
0.009121  8.728568 
0.010135  8.729091 
0.011148  8.729673 
0.012162  8.730312 
0.013175  8.731012 
0.014189  8.731772 
0.015202  8.732593 
0.016216  8.733476 
0.017229  8.734423 
0.018243  8.735433 
0.019256  8.736509 
0.020270  8.737649 
0.021283  8.738857 
0.022297  8.740131 
0.023310  8.739789 
0.024324  8.738065 
0.025337  8.736286 
0.026350  8.734456 
0.027364  8.732575 
0.028377  8.730647 
0.029391  8.728674 
0.030404  8.726658 
0.031418  8.724601 
0.032431  8.722506 
0.033445  8.720375 
0.034458  8.718211 
0.035472  8.716017 
0.036485  8.713794 
0.037499  8.711545 
0.038512  8.709274 
0.039526  8.706981 
0.040539  8.704670 
0.041553  8.702343 
0.042566  8.700004 
0.043580  8.697653 
0.044593  8.695294 
0.045607  8.692929 
0.046620  8.690561 
0.047634  8.688191 
0.048647  8.685822 
0.049661  8.683457 
0.050674  8.681098 
0.051687  8.678747 
0.052701  8.676406 
0.053714  8.674077 
0.054728  8.671763 
0.055741  8.669465 
0.056755  8.667186 
0.057768  8.664927 
0.058782  8.662690 
0.059795  8.660477 
0.060809  8.658291 
0.061822  8.656132 
0.062836  8.654002 
0.063849  8.651904 
0.064863  8.649838 
0.065876  8.647807 
0.066890  8.645811 
0.067903  8.643852 
0.068917  8.641932 
0.069930  8.640052 
0.070944  8.638213 
0.071957  8.636417 
0.072970  8.634665 
0.073984  8.632957 
0.074997  8.631296 
0.076011  8.629682 
0.077024  8.628117 
0.078038  8.626602 
0.079051  8.625137 
0.080065  8.623724 
0.081078  8.622364 
0.082092  8.621059 
0.083105  8.619808 
0.084119  8.618614 
0.085132  8.617477 
0.086146  8.616399 
0.087159  8.615380 
0.088173  8.614422 
0.089186  8.613527 
0.090200  8.612694 
0.091213  8.611926 
0.092227  8.611224 
0.093240  8.610590 
0.094254  8.610024 
0.095267  8.609528 
0.096281  8.609103 
0.097294  8.608752 
0.098308  8.608476 
0.099321  8.608277 
0.100334  8.608156 
0.101348  8.608115 


0.000000  8.760481 
0.001014  8.760439 
0.002027  8.760315 
0.003040  8.760108 
0.004054  8.759819 
0.005067  8.759448 
0.006081  8.758995 
0.007094  8.758461 
0.008108  8.757847 
0.009121  8.757154 
0.010135  8.756382 
0.011148  8.755533 
0.012162  8.754607 
0.013175  8.753606 
0.014189  8.752531 
0.015202  8.751384 
0.016216  8.750166 
0.017229  8.748878 
0.018243  8.747522 
0.019256  8.746100 
0.020270  8.744614 
0.021283  8.743065 
0.022297  8.741456 
0.023310  8.741473 
0.024324  8.742883 
0.025337  8.744362 
0.026350  8.745909 
0.027364  8.747526 
0.028377  8.749212 
0.029391  8.750966 
0.030404  8.752790 
0.031418  8.754682 
0.032431  8.756642 
0.033445  8.758669 
0.034458  8.760762 
0.035472  8.762920 
0.036485  8.765142 
0.037499  8.767426 
0.038512  8.769771 
0.039526  8.772175 
0.040539  8.774635 
0.041553  8.777149 
0.042566  8.779716 
0.043580  8.782333 
0.044593  8.784997 
0.045607  8.787704 
0.046620  8.790453 
0.047634  8.793240 
0.048647  8.796061 
0.049661  8.798914 
0.050674  8.801795 
0.051687  8.804701 
0.052701  8.807627 
0.053714  8.810571 
0.054728  8.813527 
0.055741  8.816494 
0.056755  8.819466 
0.057768  8.822440 
0.058782  8.825412 
0.059795  8.828378 
0.060809  8.831334 
0.061822  8.834276 
0.062836  8.837201 
0.063849  8.840104 
0.064863  8.842982 
0.065876  8.845830 
0.066890  8.848646 
0.067903  8.851425 
0.068917  8.854164 
0.069930  8.856860 
0.070944  8.859508 
0.071957  8.862105 
0.072970  8.864648 
0.073984  8.867134 
0.074997  8.869560 
0.076011  8.871921 
0.077024  8.874216 
0.078038  8.876442 
0.079051  8.878595 
0.080065  8.880673 
0.081078  8.882673 
0.082092  8.884592 
0.083105  8.886429 
0.084119  8.888181 
0.085132  8.889846 
0.086146  8.891421 
0.087159  8.892905 
0.088173  8.894295 
0.089186  8.895590 
0.090200  8.896789 
0.091213  8.897889 
0.092227  8.898889 
0.093240  8.899788 
0.094254  8.900585 
0.095267  8.901278 
0.096281  8.901867 
0.097294  8.902350 
0.098308  8.902726 
0.099321  8.902996 
0.100334  8.903158 
0.101348  8.903212 


