# distance  frequency (bands are separated by blank lines)
# End points of segments: 
#   0.00000000 0.14349880 
0.000000  -0.100038 
0.001435  -0.087568 
0.002870  -0.025589 
0.004305  0.104960 
0.005740  0.165286 
0.007175  0.219581 
0.008610  0.271397 
0.010045  0.321836 
0.011480  0.371356 
0.012915  0.420173 
0.014350  0.468391 
0.015785  0.516052 
0.017220  0.563164 
0.018655  0.609708 
0.020090  0.655647 
0.021525  0.700925 
0.022960  0.745470 
0.024395  0.789196 
0.025830  0.831996 
0.027265  0.873749 
0.028700  0.914314 
0.030135  0.953538 
0.031570  0.991257 
0.033005  1.027307 
0.034440  1.061538 
0.035875  1.093829 
0.037310  1.124108 
0.038745  1.152366 
0.040180  1.178662 
0.041615  1.203119 
0.043050  1.225909 
0.044485  1.247233 
0.045920  1.267305 
0.047355  1.286329 
0.048790  1.304497 
0.050225  1.321978 
0.051660  1.338918 
0.053095  1.355442 
0.054530  1.371653 
0.055965  1.387640 
0.057399  1.403476 
0.058834  1.419224 
0.060269  1.434935 
0.061705  1.450655 
0.063140  1.466423 
0.064575  1.482273 
0.066009  1.498233 
0.067444  1.514330 
0.068879  1.530586 
0.070314  1.547020 
0.071749  1.563648 
0.073184  1.580485 
0.074619  1.597540 
0.076054  1.614823 
0.077489  1.632338 
0.078924  1.650087 
0.080359  1.668071 
0.081794  1.686287 
0.083229  1.704727 
0.084664  1.723383 
0.086099  1.742244 
0.087534  1.761295 
0.088969  1.780517 
0.090404  1.799892 
0.091839  1.819396 
0.093274  1.839003 
0.094709  1.858686 
0.096144  1.878414 
0.097579  1.898154 
0.099014  1.917872 
0.100449  1.937531 
0.101884  1.957091 
0.103319  1.976515 
0.104754  1.995760 
0.106189  2.014784 
0.107624  2.033545 
0.109059  2.052002 
0.110494  2.070110 
0.111929  2.087831 
0.113364  2.105122 
0.114799  2.121947 
0.116234  2.138271 
0.117669  2.154059 
0.119104  2.169285 
0.120539  2.183922 
0.121974  2.197950 
0.123409  2.211352 
0.124844  2.224119 
0.126279  2.236243 
0.127714  2.247723 
0.129149  2.258562 
0.130584  2.268769 
0.132019  2.278353 
0.133454  2.287330 
0.134889  2.295719 
0.136324  2.303537 
0.137759  2.310807 
0.139194  2.317553 
0.140629  2.323795 
0.142064  2.329558 
0.143499  2.334617 


0.000000  1.289412 
0.001435  1.289582 
0.002870  1.290090 
0.004305  1.290936 
0.005740  1.292122 
0.007175  1.293650 
0.008610  1.295524 
0.010045  1.297752 
0.011480  1.300349 
0.012915  1.303333 
0.014350  1.306731 
0.015785  1.310580 
0.017220  1.314921 
0.018655  1.319809 
0.020090  1.325304 
0.021525  1.331476 
0.022960  1.338402 
0.024395  1.346165 
0.025830  1.354853 
0.027265  1.364554 
0.028700  1.375347 
0.030135  1.387286 
0.031570  1.400381 
0.033005  1.414559 
0.034440  1.429617 
0.035875  1.445199 
0.037310  1.460847 
0.038745  1.476155 
0.040180  1.490941 
0.041615  1.505250 
0.043050  1.519243 
0.044485  1.533093 
0.045920  1.546939 
0.047355  1.560882 
0.048790  1.574995 
0.050225  1.589328 
0.051660  1.603917 
0.053095  1.618784 
0.054530  1.633946 
0.055965  1.649412 
0.057399  1.665186 
0.058834  1.681269 
0.060269  1.697655 
0.061705  1.714340 
0.063140  1.731312 
0.064575  1.748560 
0.066009  1.766069 
0.067444  1.783822 
0.068879  1.801803 
0.070314  1.819991 
0.071749  1.838366 
0.073184  1.856907 
0.074619  1.875591 
0.076054  1.894394 
0.077489  1.913295 
0.078924  1.932269 
0.080359  1.951292 
0.081794  1.970340 
0.083229  1.989389 
0.084664  2.008416 
0.086099  2.027395 
0.087534  2.046304 
0.088969  2.065117 
0.090404  2.083812 
0.091839  2.102363 
0.093274  2.120748 
0.094709  2.138940 
0.096144  2.156917 
0.097579  2.174651 
0.099014  2.192116 
0.100449  2.209284 
0.101884  2.226123 
0.103319  2.242599 
0.104754  2.258667 
0.106189  2.274277 
0.107624  2.289358 
0.109059  2.303814 
0.110494  2.317500 
0.111929  2.330200 
0.113364  2.341592 
0.114799  2.351255 
0.116234  2.358800 
0.117669  2.364130 
0.119104  2.367549 
0.120539  2.369539 
0.121974  2.370521 
0.123409  2.370781 
0.124844  2.370499 
0.126279  2.369781 
0.127714  2.368688 
0.129149  2.367257 
0.130584  2.365507 
0.132019  2.363445 
0.133454  2.361072 
0.134889  2.358382 
0.136324  2.355366 
0.137759  2.352011 
0.139194  2.348304 
0.140629  2.344226 
0.142064  2.339761 
0.143499  2.335134 


0.000000  1.351718 
0.001435  1.351884 
0.002870  1.352384 
0.004305  1.353228 
0.005740  1.354430 
0.007175  1.356008 
0.008610  1.357984 
0.010045  1.360380 
0.011480  1.363219 
0.012915  1.366523 
0.014350  1.370310 
0.015785  1.374595 
0.017220  1.379390 
0.018655  1.384703 
0.020090  1.390542 
0.021525  1.396911 
0.022960  1.403819 
0.024395  1.411275 
0.025830  1.419300 
0.027265  1.427925 
0.028700  1.437202 
0.030135  1.447217 
0.031570  1.458109 
0.033005  1.470095 
0.034440  1.483502 
0.035875  1.498778 
0.037310  1.516423 
0.038745  1.536813 
0.040180  1.560034 
0.041615  1.585873 
0.043050  1.613948 
0.044485  1.643836 
0.045920  1.675129 
0.047355  1.707459 
0.048790  1.740502 
0.050225  1.773970 
0.051660  1.807612 
0.053095  1.841206 
0.054530  1.874556 
0.055965  1.907486 
0.057399  1.939838 
0.058834  1.971472 
0.060269  2.002261 
0.061705  2.032092 
0.063140  2.060869 
0.064575  2.088510 
0.066009  2.114951 
0.067444  2.140143 
0.068879  2.164057 
0.070314  2.186682 
0.071749  2.208024 
0.073184  2.228106 
0.074619  2.246965 
0.076054  2.264649 
0.077489  2.281216 
0.078924  2.296731 
0.080359  2.311263 
0.081794  2.324880 
0.083229  2.337651 
0.084664  2.349640 
0.086099  2.360889 
0.087534  2.370439 
0.088969  2.372748 
0.090404  2.374488 
0.091839  2.376106 
0.093274  2.377623 
0.094709  2.379051 
0.096144  2.380396 
0.097579  2.381667 
0.099014  2.382870 
0.100449  2.384017 
0.101884  2.385119 
0.103319  2.386192 
0.104754  2.387261 
0.106189  2.388357 
0.107624  2.389532 
0.109059  2.390863 
0.110494  2.392474 
0.111929  2.394561 
0.113364  2.397426 
0.114799  2.401471 
0.116234  2.407063 
0.117669  2.414277 
0.119104  2.422787 
0.120539  2.432090 
0.121974  2.441740 
0.123409  2.451425 
0.124844  2.460944 
0.126279  2.470165 
0.127714  2.478998 
0.129149  2.487384 
0.130584  2.495276 
0.132019  2.502642 
0.133454  2.509457 
0.134889  2.515700 
0.136324  2.521358 
0.137759  2.526419 
0.139194  2.530875 
0.140629  2.534707 
0.142064  2.537849 
0.143499  2.539587 


0.000000  1.947702 
0.001435  1.948167 
0.002870  1.949557 
0.004305  1.951863 
0.005740  1.955069 
0.007175  1.959150 
0.008610  1.964079 
0.010045  1.969822 
0.011480  1.976340 
0.012915  1.983589 
0.014350  1.991523 
0.015785  2.000091 
0.017220  2.009242 
0.018655  2.018921 
0.020090  2.029071 
0.021525  2.039635 
0.022960  2.050555 
0.024395  2.061772 
0.025830  2.073227 
0.027265  2.084863 
0.028700  2.096623 
0.030135  2.108450 
0.031570  2.120290 
0.033005  2.132092 
0.034440  2.143805 
0.035875  2.155383 
0.037310  2.166783 
0.038745  2.177965 
0.040180  2.188892 
0.041615  2.199533 
0.043050  2.209861 
0.044485  2.219852 
0.045920  2.229489 
0.047355  2.238756 
0.048790  2.247645 
0.050225  2.256149 
0.051660  2.264267 
0.053095  2.271999 
0.054530  2.279352 
0.055965  2.286332 
0.057399  2.292947 
0.058834  2.299211 
0.060269  2.305134 
0.061705  2.310731 
0.063140  2.316015 
0.064575  2.321001 
0.066009  2.325705 
0.067444  2.330139 
0.068879  2.334319 
0.070314  2.338258 
0.071749  2.341970 
0.073184  2.345468 
0.074619  2.348763 
0.076054  2.351868 
0.077489  2.354793 
0.078924  2.357549 
0.080359  2.360147 
0.081794  2.362595 
0.083229  2.364904 
0.084664  2.367086 
0.086099  2.369172 
0.087534  2.372190 
0.088969  2.381745 
0.090404  2.391224 
0.091839  2.400235 
0.093274  2.408807 
0.094709  2.416974 
0.096144  2.424773 
0.097579  2.432234 
0.099014  2.439386 
0.100449  2.446255 
0.101884  2.452863 
0.103319  2.459230 
0.104754  2.465372 
0.106189  2.471305 
0.107624  2.477039 
0.109059  2.482586 
0.110494  2.487950 
0.111929  2.493138 
0.113364  2.498150 
0.114799  2.502987 
0.116234  2.507644 
0.117669  2.512116 
0.119104  2.516394 
0.120539  2.520466 
0.121974  2.524319 
0.123409  2.527937 
0.124844  2.531300 
0.126279  2.534387 
0.127714  2.537177 
0.129149  2.539645 
0.130584  2.541765 
0.132019  2.543512 
0.133454  2.544860 
0.134889  2.545783 
0.136324  2.546257 
0.137759  2.546258 
0.139194  2.545770 
0.140629  2.544787 
0.142064  2.543361 
0.143499  2.542196 


0.000000  2.570341 
0.001435  2.570485 
0.002870  2.570912 
0.004305  2.571604 
0.005740  2.572535 
0.007175  2.573668 
0.008610  2.574963 
0.010045  2.576377 
0.011480  2.577868 
0.012915  2.579396 
0.014350  2.580929 
0.015785  2.582441 
0.017220  2.583915 
0.018655  2.585344 
0.020090  2.586728 
0.021525  2.588074 
0.022960  2.589397 
0.024395  2.590716 
0.025830  2.592053 
0.027265  2.593436 
0.028700  2.594894 
0.030135  2.596456 
0.031570  2.598156 
0.033005  2.600025 
0.034440  2.602099 
0.035875  2.604410 
0.037310  2.606994 
0.038745  2.609886 
0.040180  2.613122 
0.041615  2.616738 
0.043050  2.620773 
0.044485  2.625263 
0.045920  2.630249 
0.047355  2.635769 
0.048790  2.641868 
0.050225  2.648585 
0.051660  2.655967 
0.053095  2.664058 
0.054530  2.672904 
0.055965  2.682551 
0.057399  2.693043 
0.058834  2.704425 
0.060269  2.716734 
0.061705  2.730006 
0.063140  2.744266 
0.064575  2.759531 
0.066009  2.775806 
0.067444  2.793081 
0.068879  2.811332 
0.070314  2.830520 
0.071749  2.850589 
0.073184  2.871466 
0.074619  2.893069 
0.076054  2.915300 
0.077489  2.938051 
0.078924  2.961200 
0.080359  2.984594 
0.081794  3.007951 
0.083229  3.029518 
0.084664  3.040159 
0.086099  3.046490 
0.087534  3.052575 
0.088969  3.058747 
0.090404  3.065071 
0.091839  3.071569 
0.093274  3.078251 
0.094709  3.085123 
0.096144  3.092185 
0.097579  3.099440 
0.099014  3.106887 
0.100449  3.114525 
0.101884  3.122353 
0.103319  3.130369 
0.104754  3.138569 
0.106189  3.146952 
0.107624  3.155511 
0.109059  3.164244 
0.110494  3.173144 
0.111929  3.182206 
0.113364  3.191423 
0.114799  3.200786 
0.116234  3.210288 
0.117669  3.219919 
0.119104  3.229667 
0.120539  3.239521 
0.121974  3.249466 
0.123409  3.259488 
0.124844  3.269571 
0.126279  3.279694 
0.127714  3.289840 
0.129149  3.299984 
0.130584  3.310104 
0.132019  3.320172 
0.133454  3.330162 
0.134889  3.340041 
0.136324  3.349779 
0.137759  3.359340 
0.139194  3.368688 
0.140629  3.377779 
0.142064  3.386556 
0.143499  3.393975 


0.000000  2.751714 
0.001435  2.752158 
0.002870  2.753497 
0.004305  2.755741 
0.005740  2.758910 
0.007175  2.763027 
0.008610  2.768120 
0.010045  2.774212 
0.011480  2.781328 
0.012915  2.789484 
0.014350  2.798690 
0.015785  2.808944 
0.017220  2.820238 
0.018655  2.832551 
0.020090  2.845856 
0.021525  2.860114 
0.022960  2.875282 
0.024395  2.891308 
0.025830  2.908129 
0.027265  2.925653 
0.028700  2.943649 
0.030135  2.959627 
0.031570  2.960512 
0.033005  2.957906 
0.034440  2.955463 
0.035875  2.953402 
0.037310  2.951756 
0.038745  2.950527 
0.040180  2.949704 
0.041615  2.949271 
0.043050  2.949212 
0.044485  2.949505 
0.045920  2.950129 
0.047355  2.951064 
0.048790  2.952286 
0.050225  2.953774 
0.051660  2.955508 
0.053095  2.957469 
0.054530  2.959638 
0.055965  2.962000 
0.057399  2.964540 
0.058834  2.967248 
0.060269  2.970113 
0.061705  2.973129 
0.063140  2.976290 
0.064575  2.979593 
0.066009  2.983037 
0.067444  2.986621 
0.068879  2.990347 
0.070314  2.994218 
0.071749  2.998237 
0.073184  3.002410 
0.074619  3.006743 
0.076054  3.011244 
0.077489  3.015923 
0.078924  3.020800 
0.080359  3.025923 
0.081794  3.031467 
0.083229  3.039079 
0.084664  3.057794 
0.086099  3.080896 
0.087534  3.104225 
0.088969  3.127362 
0.090404  3.150157 
0.091839  3.172511 
0.093274  3.194341 
0.094709  3.215578 
0.096144  3.236158 
0.097579  3.256025 
0.099014  3.275129 
0.100449  3.293425 
0.101884  3.310873 
0.103319  3.327437 
0.104754  3.343084 
0.106189  3.357786 
0.107624  3.371514 
0.109059  3.384245 
0.110494  3.395956 
0.111929  3.406625 
0.113364  3.416237 
0.114799  3.424775 
0.116234  3.432230 
0.117669  3.438595 
0.119104  3.443871 
0.120539  3.448066 
0.121974  3.451192 
0.123409  3.453272 
0.124844  3.454333 
0.126279  3.454410 
0.127714  3.453541 
0.129149  3.451769 
0.130584  3.449142 
0.132019  3.445708 
0.133454  3.441516 
0.134889  3.436618 
0.136324  3.431063 
0.137759  3.424903 
0.139194  3.418187 
0.140629  3.410968 
0.142064  3.403311 
0.143499  3.396265 


0.000000  3.120109 
0.001435  3.118483 
0.002870  3.113383 
0.004305  3.105273 
0.005740  3.095549 
0.007175  3.085252 
0.008610  3.074884 
0.010045  3.064678 
0.011480  3.054754 
0.012915  3.045176 
0.014350  3.035987 
0.015785  3.027216 
0.017220  3.018882 
0.018655  3.011001 
0.020090  3.003588 
0.021525  2.996652 
0.022960  2.990205 
0.024395  2.984258 
0.025830  2.978829 
0.027265  2.973958 
0.028700  2.969825 
0.030135  2.968863 
0.031570  2.984092 
0.033005  3.003849 
0.034440  3.024420 
0.035875  3.045525 
0.037310  3.067064 
0.038745  3.088968 
0.040180  3.111168 
0.041615  3.133560 
0.043050  3.155766 
0.044485  3.172164 
0.045920  3.177870 
0.047355  3.182786 
0.048790  3.187878 
0.050225  3.193253 
0.051660  3.198938 
0.053095  3.204942 
0.054530  3.211266 
0.055965  3.217906 
0.057399  3.224856 
0.058834  3.232106 
0.060269  3.239645 
0.061705  3.247460 
0.063140  3.255536 
0.064575  3.263859 
0.066009  3.272414 
0.067444  3.281184 
0.068879  3.290155 
0.070314  3.299310 
0.071749  3.308637 
0.073184  3.318121 
0.074619  3.327749 
0.076054  3.337511 
0.077489  3.347395 
0.078924  3.357392 
0.080359  3.367495 
0.081794  3.377695 
0.083229  3.387988 
0.084664  3.398367 
0.086099  3.408828 
0.087534  3.419367 
0.088969  3.429982 
0.090404  3.440668 
0.091839  3.451424 
0.093274  3.462247 
0.094709  3.473135 
0.096144  3.484083 
0.097579  3.495090 
0.099014  3.506151 
0.100449  3.517263 
0.101884  3.528419 
0.103319  3.539614 
0.104754  3.550841 
0.106189  3.562093 
0.107624  3.573362 
0.109059  3.584639 
0.110494  3.595915 
0.111929  3.607179 
0.113364  3.618422 
0.114799  3.629632 
0.116234  3.640798 
0.117669  3.651908 
0.119104  3.662949 
0.120539  3.673908 
0.121974  3.684768 
0.123409  3.695512 
0.124844  3.706121 
0.126279  3.716571 
0.127714  3.726836 
0.129149  3.736885 
0.130584  3.746684 
0.132019  3.756192 
0.133454  3.765364 
0.134889  3.774147 
0.136324  3.782481 
0.137759  3.790296 
0.139194  3.797511 
0.140629  3.804032 
0.142064  3.809745 
0.143499  3.814026 


0.000000  3.152540 
0.001435  3.147156 
0.002870  3.141275 
0.004305  3.138000 
0.005740  3.136431 
0.007175  3.135699 
0.008610  3.135385 
0.010045  3.135308 
0.011480  3.135386 
0.012915  3.135580 
0.014350  3.135872 
0.015785  3.136255 
0.017220  3.136727 
0.018655  3.137291 
0.020090  3.137952 
0.021525  3.138716 
0.022960  3.139592 
0.024395  3.140590 
0.025830  3.141719 
0.027265  3.142991 
0.028700  3.144419 
0.030135  3.146016 
0.031570  3.147796 
0.033005  3.149773 
0.034440  3.151963 
0.035875  3.154382 
0.037310  3.157048 
0.038745  3.159983 
0.040180  3.163217 
0.041615  3.166820 
0.043050  3.171136 
0.044485  3.181757 
0.045920  3.203533 
0.047355  3.226532 
0.048790  3.249751 
0.050225  3.273050 
0.051660  3.296363 
0.053095  3.319641 
0.054530  3.342840 
0.055965  3.365916 
0.057399  3.388825 
0.058834  3.411519 
0.060269  3.433943 
0.061705  3.456033 
0.063140  3.477709 
0.064575  3.498865 
0.066009  3.519346 
0.067444  3.538925 
0.068879  3.557253 
0.070314  3.573841 
0.071749  3.588160 
0.073184  3.599949 
0.074619  3.609478 
0.076054  3.617341 
0.077489  3.624098 
0.078924  3.630142 
0.080359  3.635715 
0.081794  3.640962 
0.083229  3.645972 
0.084664  3.650798 
0.086099  3.655475 
0.087534  3.660027 
0.088969  3.664469 
0.090404  3.668812 
0.091839  3.673065 
0.093274  3.677235 
0.094709  3.681332 
0.096144  3.685362 
0.097579  3.689337 
0.099014  3.693268 
0.100449  3.697168 
0.101884  3.701054 
0.103319  3.704946 
0.104754  3.708865 
0.106189  3.712836 
0.107624  3.716888 
0.109059  3.721050 
0.110494  3.725352 
0.111929  3.729827 
0.113364  3.734502 
0.114799  3.739403 
0.116234  3.744552 
0.117669  3.749959 
0.119104  3.755628 
0.120539  3.761546 
0.121974  3.767689 
0.123409  3.774014 
0.124844  3.780457 
0.126279  3.786935 
0.127714  3.793340 
0.129149  3.799538 
0.130584  3.805371 
0.132019  3.810656 
0.133454  3.815196 
0.134889  3.818795 
0.136324  3.821277 
0.137759  3.822512 
0.139194  3.822437 
0.140629  3.821055 
0.142064  3.818435 
0.143499  3.815188 


0.000000  3.163636 
0.001435  3.171031 
0.002870  3.183166 
0.004305  3.196476 
0.005740  3.210466 
0.007175  3.224963 
0.008610  3.239886 
0.010045  3.255184 
0.011480  3.270823 
0.012915  3.286776 
0.014350  3.303022 
0.015785  3.319542 
0.017220  3.336317 
0.018655  3.353330 
0.020090  3.370564 
0.021525  3.387999 
0.022960  3.405615 
0.024395  3.423388 
0.025830  3.441285 
0.027265  3.459255 
0.028700  3.477204 
0.030135  3.494905 
0.031570  3.511618 
0.033005  3.524637 
0.034440  3.531097 
0.035875  3.534355 
0.037310  3.536814 
0.038745  3.539105 
0.040180  3.541418 
0.041615  3.543824 
0.043050  3.546355 
0.044485  3.549027 
0.045920  3.551848 
0.047355  3.554820 
0.048790  3.557946 
0.050225  3.561226 
0.051660  3.564659 
0.053095  3.568246 
0.054530  3.571987 
0.055965  3.575886 
0.057399  3.579947 
0.058834  3.584181 
0.060269  3.588602 
0.061705  3.593238 
0.063140  3.598132 
0.064575  3.603355 
0.066009  3.609024 
0.067444  3.615333 
0.068879  3.622593 
0.070314  3.631261 
0.071749  3.641833 
0.073184  3.654534 
0.074619  3.669065 
0.076054  3.684800 
0.077489  3.701146 
0.078924  3.717682 
0.080359  3.734137 
0.081794  3.750338 
0.083229  3.766171 
0.084664  3.781556 
0.086099  3.796438 
0.087534  3.810772 
0.088969  3.824526 
0.090404  3.837674 
0.091839  3.850197 
0.093274  3.862079 
0.094709  3.873310 
0.096144  3.883883 
0.097579  3.893796 
0.099014  3.903048 
0.100449  3.911643 
0.101884  3.919584 
0.103319  3.926879 
0.104754  3.933536 
0.106189  3.939565 
0.107624  3.944976 
0.109059  3.949780 
0.110494  3.953992 
0.111929  3.957626 
0.113364  3.960700 
0.114799  3.963233 
0.116234  3.965249 
0.117669  3.966777 
0.119104  3.967850 
0.120539  3.968511 
0.121974  3.968807 
0.123409  3.968802 
0.124844  3.968567 
0.126279  3.968194 
0.127714  3.967790 
0.129149  3.967486 
0.130584  3.967434 
0.132019  3.967807 
0.133454  3.968789 
0.134889  3.970564 
0.136324  3.973290 
0.137759  3.977080 
0.139194  3.981979 
0.140629  3.987964 
0.142064  3.994954 
0.143499  4.002669 


0.000000  3.532067 
0.001435  3.532034 
0.002870  3.531938 
0.004305  3.531781 
0.005740  3.531571 
0.007175  3.531317 
0.008610  3.531031 
0.010045  3.530724 
0.011480  3.530413 
0.012915  3.530111 
0.014350  3.529837 
0.015785  3.529606 
0.017220  3.529435 
0.018655  3.529343 
0.020090  3.529345 
0.021525  3.529461 
0.022960  3.529709 
0.024395  3.530112 
0.025830  3.530698 
0.027265  3.531513 
0.028700  3.532645 
0.030135  3.534314 
0.031570  3.537251 
0.033005  3.544151 
0.034440  3.557867 
0.035875  3.575031 
0.037310  3.593224 
0.038745  3.611802 
0.040180  3.630559 
0.041615  3.649405 
0.043050  3.668292 
0.044485  3.687184 
0.045920  3.706056 
0.047355  3.724883 
0.048790  3.743645 
0.050225  3.762319 
0.051660  3.780888 
0.053095  3.799329 
0.054530  3.817623 
0.055965  3.835750 
0.057399  3.853689 
0.058834  3.871419 
0.060269  3.888919 
0.061705  3.906168 
0.063140  3.923142 
0.064575  3.939819 
0.066009  3.956176 
0.067444  3.972188 
0.068879  3.987830 
0.070314  4.003072 
0.071749  4.017885 
0.073184  4.032233 
0.074619  4.046071 
0.076054  4.059338 
0.077489  4.071940 
0.078924  4.083714 
0.080359  4.094355 
0.081794  4.103338 
0.083229  4.110176 
0.084664  4.115158 
0.086099  4.119172 
0.087534  4.122893 
0.088969  4.126660 
0.090404  4.130629 
0.091839  4.134867 
0.093274  4.139392 
0.094709  4.144191 
0.096144  4.149222 
0.097579  4.154415 
0.099014  4.159665 
0.100449  4.164829 
0.101884  4.169718 
0.103319  4.174108 
0.104754  4.177759 
0.106189  4.180460 
0.107624  4.182072 
0.109059  4.182543 
0.110494  4.181896 
0.111929  4.180191 
0.113364  4.177506 
0.114799  4.173915 
0.116234  4.169487 
0.117669  4.164283 
0.119104  4.158361 
