# distance  frequency (bands are separated by blank lines)
# End points of segments: 
#   0.00000000 0.18477870 
0.000000  -0.000000 
0.001848  -0.028794 
0.003696  -0.057312 
0.005543  -0.085280 
0.007391  -0.112419 
0.009239  -0.138447 
0.011087  -0.163075 
0.012934  -0.186006 
0.014782  -0.206927 
0.016630  -0.225508 
0.018478  -0.241387 
0.020326  -0.254161 
0.022173  -0.263364 
0.024021  -0.268435 
0.025869  -0.268662 
0.027717  -0.263084 
0.029565  -0.250294 
0.031412  -0.227977 
0.033260  -0.191559 
0.035108  -0.127767 
0.036956  0.098017 
0.038803  0.203845 
0.040651  0.282744 
0.042499  0.353823 
0.044347  0.421522 
0.046195  0.487622 
0.048043  0.553003 
0.049890  0.618145 
0.051738  0.683326 
0.053586  0.748710 
0.055434  0.814391 
0.057281  0.880421 
0.059129  0.946823 
0.060977  1.013603 
0.062825  1.080751 
0.064672  1.148250 
0.066520  1.216077 
0.068368  1.284205 
0.070216  1.352602 
0.072064  1.421236 
0.073912  1.490073 
0.075759  1.559078 
0.077607  1.628218 
0.079455  1.697456 
0.081303  1.766758 
0.083150  1.836090 
0.084998  1.905417 
0.086846  1.974706 
0.088694  2.043924 
0.090542  2.113037 
0.092389  2.182015 
0.094237  2.250825 
0.096085  2.319436 
0.097933  2.387818 
0.099780  2.455939 
0.101628  2.523771 
0.103476  2.591282 
0.105324  2.658443 
0.107172  2.725225 
0.109019  2.791597 
0.110867  2.857531 
0.112715  2.922996 
0.114563  2.987961 
0.116411  3.052395 
0.118258  3.116268 
0.120106  3.179546 
0.121954  3.242196 
0.123802  3.304184 
0.125649  3.365473 
0.127497  3.400599 
0.129345  3.418972 
0.131193  3.436414 
0.133041  3.452941 
0.134888  3.468570 
0.136736  3.483318 
0.138584  3.497206 
0.140432  3.510255 
0.142280  3.522488 
0.144127  3.533928 
0.145975  3.544599 
0.147823  3.554528 
0.149671  3.563740 
0.151519  3.572263 
0.153366  3.580123 
0.155214  3.587348 
0.157062  3.593966 
0.158910  3.600003 
0.160757  3.605487 
0.162605  3.610444 
0.164453  3.614899 
0.166301  3.618877 
0.168149  3.622400 
0.169996  3.625491 
0.171844  3.628168 
0.173692  3.630450 
0.175540  3.632353 
0.177388  3.633891 
0.179235  3.635075 
0.181083  3.635914 
0.182931  3.636415 
0.184779  3.636582 


0.000000  0.000000 
0.001848  0.069486 
0.003696  0.138934 
0.005543  0.208304 
0.007391  0.277559 
0.009239  0.346661 
0.011087  0.415571 
0.012934  0.484254 
0.014782  0.552673 
0.016630  0.620792 
0.018478  0.688578 
0.020326  0.755996 
0.022173  0.823015 
0.024021  0.889602 
0.025869  0.955727 
0.027717  1.021363 
0.029565  1.086480 
0.031412  1.151052 
0.033260  1.215054 
0.035108  1.278463 
0.036956  1.341255 
0.038803  1.403409 
0.040651  1.464904 
0.042499  1.525723 
0.044347  1.585846 
0.046195  1.645258 
0.048043  1.703942 
0.049890  1.761884 
0.051738  1.819070 
0.053586  1.875487 
0.055434  1.931122 
0.057281  1.985965 
0.059129  2.040004 
0.060977  2.093229 
0.062825  2.145630 
0.064672  2.197198 
0.066520  2.247923 
0.068368  2.297796 
0.070216  2.346809 
0.072064  2.394954 
0.073912  2.442222 
0.075759  2.488604 
0.077607  2.534093 
0.079455  2.578681 
0.081303  2.622359 
0.083150  2.665119 
0.084998  2.706954 
0.086846  2.747856 
0.088694  2.787818 
0.090542  2.826830 
0.092389  2.864888 
0.094237  2.901982 
0.096085  2.938107 
0.097933  2.973257 
0.099780  3.007425 
0.101628  3.040606 
0.103476  3.072796 
0.105324  3.103991 
0.107172  3.134187 
0.109019  3.163382 
0.110867  3.191575 
0.112715  3.218766 
0.114563  3.244956 
0.116411  3.270146 
0.118258  3.294341 
0.120106  3.317545 
0.121954  3.339764 
0.123802  3.361007 
0.125649  3.381281 
0.127497  3.426027 
0.129345  3.485805 
0.131193  3.544767 
0.133041  3.602869 
0.134888  3.660064 
0.136736  3.716305 
0.138584  3.771537 
0.140432  3.825707 
0.142280  3.878754 
0.144127  3.930616 
0.145975  3.981223 
0.147823  4.030505 
0.149671  4.078382 
0.151519  4.124772 
0.153366  4.169587 
0.155214  4.212733 
0.157062  4.254111 
0.158910  4.293616 
0.160757  4.331138 
0.162605  4.366562 
0.164453  4.399771 
0.166301  4.430643 
0.168149  4.459057 
0.169996  4.484889 
0.171844  4.508022 
0.173692  4.528340 
0.175540  4.545737 
0.177388  4.560115 
0.179235  4.571392 
0.181083  4.579497 
0.182931  4.584381 
0.184779  4.585538 


0.000000  0.000000 
0.001848  0.108791 
0.003696  0.217527 
0.005543  0.326155 
0.007391  0.434619 
0.009239  0.542865 
0.011087  0.650841 
0.012934  0.758491 
0.014782  0.865764 
0.016630  0.972605 
0.018478  1.078964 
0.020326  1.184788 
0.022173  1.290025 
0.024021  1.394626 
0.025869  1.498540 
0.027717  1.601717 
0.029565  1.704109 
0.031412  1.805667 
0.033260  1.906343 
0.035108  2.006091 
0.036956  2.104864 
0.038803  2.202615 
0.040651  2.299299 
0.042499  2.394871 
0.044347  2.489285 
0.046195  2.582497 
0.048043  2.674463 
0.049890  2.765136 
0.051738  2.854474 
0.053586  2.942431 
0.055434  3.028963 
0.057281  3.114023 
0.059129  3.197567 
0.060977  3.279547 
0.062825  3.359916 
0.064672  3.438626 
0.066520  3.515628 
0.068368  3.590872 
0.070216  3.664305 
0.072064  3.735875 
0.073912  3.805528 
0.075759  3.873208 
0.077607  3.938858 
0.079455  4.002420 
0.081303  4.063835 
0.083150  4.123043 
0.084998  4.179983 
0.086846  4.234597 
0.088694  4.286825 
0.090542  4.336608 
0.092389  4.383893 
0.094237  4.428627 
0.096085  4.470764 
0.097933  4.510263 
0.099780  4.547092 
0.101628  4.581227 
0.103476  4.612654 
0.105324  4.641372 
0.107172  4.667391 
0.109019  4.690736 
0.110867  4.711444 
0.112715  4.729569 
0.114563  4.745176 
0.116411  4.758345 
0.118258  4.769167 
0.120106  4.777746 
0.121954  4.784192 
0.123802  4.788626 
0.125649  4.791174 
0.127497  4.791967 
0.129345  4.791138 
0.131193  4.788824 
0.133041  4.785159 
0.134888  4.780280 
0.136736  4.774318 
0.138584  4.767406 
0.140432  4.759672 
0.142280  4.751239 
0.144127  4.742230 
0.145975  4.732759 
0.147823  4.722941 
0.149671  4.712882 
0.151519  4.702687 
0.153366  4.692456 
0.155214  4.682281 
0.157062  4.672254 
0.158910  4.662460 
0.160757  4.652979 
0.162605  4.643886 
0.164453  4.635253 
0.166301  4.627145 
0.168149  4.619623 
0.169996  4.612741 
0.171844  4.606549 
0.173692  4.601092 
0.175540  4.596409 
0.177388  4.592532 
0.179235  4.589488 
0.181083  4.587299 
0.182931  4.585979 
0.184779  4.586012 


0.000000  4.972544 
0.001848  4.972744 
0.003696  4.973340 
0.005543  4.974333 
0.007391  4.975723 
0.009239  4.977507 
0.011087  4.979684 
0.012934  4.982252 
0.014782  4.985207 
0.016630  4.988548 
0.018478  4.992270 
0.020326  4.996370 
0.022173  5.000842 
0.024021  5.005683 
0.025869  5.010885 
0.027717  5.016445 
0.029565  5.022354 
0.031412  5.028605 
0.033260  5.035192 
0.035108  5.042104 
0.036956  5.049335 
0.038803  5.056874 
0.040651  5.064710 
0.042499  5.072834 
0.044347  5.081235 
0.046195  5.089900 
0.048043  5.098817 
0.049890  5.107973 
0.051738  5.117356 
0.053586  5.126952 
0.055434  5.136746 
0.057281  5.146724 
0.059129  5.156872 
0.060977  5.167174 
0.062825  5.177615 
0.064672  5.188180 
0.066520  5.198854 
0.068368  5.209620 
0.070216  5.220463 
0.072064  5.231368 
0.073912  5.242319 
0.075759  5.253300 
0.077607  5.264297 
0.079455  5.275295 
0.081303  5.286278 
0.083150  5.297234 
0.084998  5.308147 
0.086846  5.319005 
0.088694  5.329794 
0.090542  5.340503 
0.092389  5.351118 
0.094237  5.361628 
0.096085  5.372023 
0.097933  5.382292 
0.099780  5.392425 
0.101628  5.402414 
0.103476  5.412248 
0.105324  5.421922 
0.107172  5.431426 
0.109019  5.440754 
0.110867  5.449900 
0.112715  5.458858 
0.114563  5.467623 
0.116411  5.476189 
0.118258  5.484553 
0.120106  5.492710 
0.121954  5.500658 
0.123802  5.508392 
0.125649  5.515911 
0.127497  5.523212 
0.129345  5.530292 
0.131193  5.537151 
0.133041  5.543785 
0.134888  5.550195 
0.136736  5.556379 
0.138584  5.562335 
0.140432  5.568063 
0.142280  5.573562 
0.144127  5.578832 
0.145975  5.583871 
0.147823  5.588680 
0.149671  5.593257 
0.151519  5.597603 
0.153366  5.601717 
0.155214  5.605598 
0.157062  5.609247 
0.158910  5.612662 
0.160757  5.615844 
0.162605  5.618791 
0.164453  5.621505 
0.166301  5.623983 
0.168149  5.626227 
0.169996  5.628236 
0.171844  5.630009 
0.173692  5.631546 
0.175540  5.632847 
0.177388  5.633912 
0.179235  5.634740 
0.181083  5.635332 
0.182931  5.635687 
0.184779  5.635805 


0.000000  4.972546 
0.001848  4.973576 
0.003696  4.976661 
0.005543  4.981786 
0.007391  4.988921 
0.009239  4.998030 
0.011087  5.009065 
0.012934  5.021969 
0.014782  5.036679 
0.016630  5.053122 
0.018478  5.071221 
0.020326  5.090892 
0.022173  5.112050 
0.024021  5.134603 
0.025869  5.158459 
0.027717  5.183525 
0.029565  5.209707 
0.031412  5.236909 
0.033260  5.265040 
0.035108  5.294008 
0.036956  5.323723 
0.038803  5.354097 
0.040651  5.385045 
0.042499  5.416486 
0.044347  5.448341 
0.046195  5.480535 
0.048043  5.512995 
0.049890  5.545652 
0.051738  5.578441 
0.053586  5.611300 
0.055434  5.644170 
0.057281  5.676997 
0.059129  5.709726 
0.060977  5.742310 
0.062825  5.774702 
0.064672  5.806858 
0.066520  5.838737 
0.068368  5.870301 
0.070216  5.901513 
0.072064  5.932339 
0.073912  5.962746 
0.075759  5.992705 
0.077607  6.022186 
0.079455  6.051161 
0.081303  6.079605 
0.083150  6.107491 
0.084998  6.134795 
0.086846  6.161493 
0.088694  6.187563 
0.090542  6.212981 
0.092389  6.237724 
0.094237  6.261771 
0.096085  6.285099 
0.097933  6.307687 
0.099780  6.329511 
0.101628  6.350549 
0.103476  6.370780 
0.105324  6.390180 
0.107172  6.408728 
0.109019  6.426400 
0.110867  6.443174 
0.112715  6.459028 
0.114563  6.473941 
0.116411  6.487892 
0.118258  6.500860 
0.120106  6.512827 
0.121954  6.523775 
0.123802  6.533689 
0.125649  6.542556 
0.127497  6.550365 
0.129345  6.557109 
0.131193  6.562784 
0.133041  6.567391 
0.134888  6.570933 
0.136736  6.573422 
0.138584  6.574873 
0.140432  6.575307 
0.142280  6.574753 
0.144127  6.573245 
0.145975  6.570827 
0.147823  6.567549 
0.149671  6.563470 
0.151519  6.558655 
0.153366  6.553181 
0.155214  6.547130 
0.157062  6.540594 
0.158910  6.533673 
0.160757  6.526472 
0.162605  6.519106 
0.164453  6.511692 
0.166301  6.504353 
0.168149  6.497215 
0.169996  6.490402 
0.171844  6.484038 
0.173692  6.478242 
0.175540  6.473124 
0.177388  6.468786 
0.179235  6.465316 
0.181083  6.462783 
0.182931  6.461242 
0.184779  6.460725 


0.000000  7.159702 
0.001848  7.159344 
0.003696  7.158270 
0.005543  7.156486 
0.007391  7.153997 
0.009239  7.150812 
0.011087  7.146942 
0.012934  7.142401 
0.014782  7.137205 
0.016630  7.131368 
0.018478  7.124911 
0.020326  7.117852 
0.022173  7.110213 
0.024021  7.102013 
0.025869  7.093276 
0.027717  7.084024 
0.029565  7.074280 
0.031412  7.064067 
0.033260  7.053409 
0.035108  7.042331 
0.036956  7.030855 
0.038803  7.019008 
0.040651  7.006815 
0.042499  6.994300 
0.044347  6.981492 
0.046195  6.968415 
0.048043  6.955099 
0.049890  6.941572 
0.051738  6.927864 
0.053586  6.914006 
0.055434  6.900031 
0.057281  6.885972 
0.059129  6.871866 
0.060977  6.857749 
0.062825  6.843660 
0.064672  6.829643 
0.066520  6.815738 
0.068368  6.801994 
0.070216  6.788458 
0.072064  6.775181 
0.073912  6.762216 
0.075759  6.749619 
0.077607  6.737449 
0.079455  6.725765 
0.081303  6.714631 
0.083150  6.704112 
0.084998  6.694274 
0.086846  6.685183 
0.088694  6.676908 
0.090542  6.669515 
0.092389  6.663069 
0.094237  6.657635 
0.096085  6.653272 
0.097933  6.650033 
0.099780  6.647967 
0.101628  6.647115 
0.103476  6.647508 
0.105324  6.649165 
0.107172  6.652098 
0.109019  6.656302 
0.110867  6.661762 
0.112715  6.668451 
0.114563  6.676327 
0.116411  6.685338 
0.118258  6.695419 
0.120106  6.706499 
0.121954  6.718496 
0.123802  6.731322 
0.125649  6.744885 
0.127497  6.759088 
0.129345  6.773834 
0.131193  6.789024 
0.133041  6.804562 
0.134888  6.820352 
0.136736  6.836300 
0.138584  6.852319 
0.140432  6.868321 
0.142280  6.884227 
0.144127  6.899958 
0.145975  6.915443 
0.147823  6.930613 
0.149671  6.945405 
0.151519  6.959759 
0.153366  6.973622 
0.155214  6.986941 
0.157062  6.999671 
0.158910  7.011768 
0.160757  7.023192 
0.162605  7.033907 
0.164453  7.043881 
0.166301  7.053083 
0.168149  7.061487 
0.169996  7.069069 
0.171844  7.075808 
0.173692  7.081685 
0.175540  7.086684 
0.177388  7.090792 
0.179235  7.093999 
0.181083  7.096295 
0.182931  7.097675 
0.184779  7.098136 


0.000000  8.579425 
0.001848  8.579578 
0.003696  8.580032 
0.005543  8.580787 
0.007391  8.581839 
0.009239  8.583183 
0.011087  8.584814 
0.012934  8.586724 
0.014782  8.588906 
0.016630  8.591349 
0.018478  8.594043 
0.020326  8.596977 
0.022173  8.600138 
0.024021  8.603514 
0.025869  8.607091 
0.027717  8.610854 
0.029565  8.614790 
0.031412  8.618883 
0.033260  8.623117 
0.035108  8.627478 
0.036956  8.631950 
0.038803  8.636518 
0.040651  8.641167 
0.042499  8.645881 
0.044347  8.650647 
0.046195  8.655449 
0.048043  8.660275 
0.049890  8.665110 
0.051738  8.669943 
0.053586  8.674760 
0.055434  8.679551 
0.057281  8.684305 
0.059129  8.689012 
0.060977  8.693661 
0.062825  8.698245 
0.064672  8.702755 
0.066520  8.707183 
0.068368  8.711523 
0.070216  8.715768 
0.072064  8.719913 
0.073912  8.723953 
0.075759  8.727882 
0.077607  8.731697 
0.079455  8.735394 
0.081303  8.738970 
0.083150  8.742420 
0.084998  8.745744 
0.086846  8.748938 
0.088694  8.752000 
0.090542  8.754928 
0.092389  8.757721 
0.094237  8.760377 
0.096085  8.762895 
0.097933  8.765274 
0.099780  8.767512 
0.101628  8.769610 
0.103476  8.771566 
0.105324  8.773381 
0.107172  8.775053 
0.109019  8.776584 
0.110867  8.777973 
0.112715  8.779222 
0.114563  8.780331 
0.116411  8.781302 
0.118258  8.782137 
0.120106  8.782837 
0.121954  8.783405 
0.123802  8.783845 
0.125649  8.784159 
0.127497  8.784351 
0.129345  8.784427 
0.131193  8.784390 
0.133041  8.784246 
0.134888  8.784002 
0.136736  8.783663 
0.138584  8.783236 
0.140432  8.782728 
0.142280  8.782147 
0.144127  8.781502 
0.145975  8.780799 
0.147823  8.780048 
0.149671  8.779258 
0.151519  8.778437 
0.153366  8.777595 
0.155214  8.776741 
0.157062  8.775883 
0.158910  8.775031 
0.160757  8.774193 
0.162605  8.773379 
0.164453  8.772595 
0.166301  8.771851 
0.168149  8.771153 
0.169996  8.770509 
0.171844  8.769925 
0.173692  8.769407 
0.175540  8.768959 
0.177388  8.768587 
0.179235  8.768294 
0.181083  8.768082 
0.182931  8.767954 
0.184779  8.767911 


0.000000  8.579426 
0.001848  8.579947 
0.003696  8.581507 
0.005543  8.584099 
0.007391  8.587706 
0.009239  8.592309 
0.011087  8.597882 
0.012934  8.604396 
0.014782  8.611815 
0.016630  8.620101 
0.018478  8.629212 
0.020326  8.639101 
0.022173  8.649721 
0.024021  8.661023 
0.025869  8.672954 
0.027717  8.685462 
0.029565  8.698494 
0.031412  8.711997 
0.033260  8.725917 
0.035108  8.740203 
0.036956  8.754801 
0.038803  8.769663 
0.040651  8.784739 
0.042499  8.799983 
0.044347  8.815349 
0.046195  8.830796 
0.048043  8.846281 
0.049890  8.861768 
0.051738  8.877220 
0.053586  8.892606 
0.055434  8.907895 
0.057281  8.923060 
0.059129  8.938075 
0.060977  8.952920 
0.062825  8.967575 
0.064672  8.982022 
0.066520  8.996248 
0.068368  9.010241 
0.070216  9.023991 
0.072064  9.037491 
0.073912  9.050734 
0.075759  9.063718 
0.077607  9.076440 
0.079455  9.088899 
0.081303  9.101097 
0.083150  9.113035 
0.084998  9.124717 
0.086846  9.136146 
0.088694  9.147326 
0.090542  9.158262 
0.092389  9.168959 
0.094237  9.179424 
0.096085  9.189660 
0.097933  9.199675 
0.099780  9.209471 
0.101628  9.219056 
0.103476  9.228433 
0.105324  9.237605 
0.107172  9.246578 
0.109019  9.255353 
0.110867  9.263934 
0.112715  9.272322 
0.114563  9.280518 
0.116411  9.288524 
0.118258  9.296339 
0.120106  9.303963 
0.121954  9.311395 
0.123802  9.318635 
0.125649  9.325679 
0.127497  9.332528 
0.129345  9.339177 
0.131193  9.345625 
0.133041  9.351870 
0.134888  9.357909 
0.136736  9.363739 
0.138584  9.369357 
0.140432  9.374761 
0.142280  9.379950 
0.144127  9.384920 
0.145975  9.375529 
0.147823  9.363565 
0.149671  9.352282 
0.151519  9.341679 
0.153366  9.331750 
0.155214  9.322490 
0.157062  9.313890 
0.158910  9.305938 
0.160757  9.298624 
0.162605  9.291933 
0.164453  9.285850 
0.166301  9.280362 
0.168149  9.275453 
0.169996  9.271109 
0.171844  9.267314 
0.173692  9.264055 
0.175540  9.261320 
0.177388  9.259098 
0.179235  9.257380 
0.181083  9.256159 
0.182931  9.255428 
0.184779  9.255185 


0.000000  10.628085 
0.001848  10.627754 
0.003696  10.626763 
0.005543  10.625111 
0.007391  10.622802 
0.009239  10.619836 
0.011087  10.616218 
0.012934  10.611950 
0.014782  10.607037 
0.016630  10.601484 
0.018478  10.595296 
0.020326  10.588479 
0.022173  10.581040 
0.024021  10.572985 
0.025869  10.564322 
0.027717  10.555059 
0.029565  10.545205 
0.031412  10.534767 
0.033260  10.523757 
0.035108  10.512182 
0.036956  10.500054 
0.038803  10.487381 
0.040651  10.474176 
0.042499  10.460448 
0.044347  10.446209 
0.046195  10.431470 
0.048043  10.416243 
0.049890  10.400540 
0.051738  10.384372 
0.053586  10.367753 
0.055434  10.350694 
0.057281  10.333209 
0.059129  10.315310 
0.060977  10.297012 
0.062825  10.278328 
0.064672  10.259271 
0.066520  10.239857 
0.068368  10.220101 
0.070216  10.200017 
0.072064  10.179622 
0.073912  10.158931 
0.075759  10.137963 
0.077607  10.116733 
0.079455  10.095261 
0.081303  10.073565 
0.083150  10.051666 
0.084998  10.029582 
0.086846  10.007336 
0.088694  9.984951 
0.090542  9.962447 
0.092389  9.939851 
0.094237  9.917187 
0.096085  9.894480 
0.097933  9.871758 
0.099780  9.849048 
0.101628  9.826378 
0.103476  9.803780 
0.105324  9.781282 
0.107172  9.758916 
0.109019  9.736715 
0.110867  9.714709 
0.112715  9.692933 
0.114563  9.671420 
0.116411  9.650202 
0.118258  9.629313 
0.120106  9.608787 
0.121954  9.588655 
0.123802  9.568951 
0.125649  9.549705 
0.127497  9.530947 
0.129345  9.512706 
0.131193  9.495008 
0.133041  9.477880 
0.134888  9.461343 
0.136736  9.445419 
0.138584  9.430126 
0.140432  9.415479 
0.142280  9.401491 
0.144127  9.388172 
0.145975  9.389670 
0.147823  9.394199 
0.149671  9.398504 
0.151519  9.402586 
0.153366  9.406443 
0.155214  9.410074 
0.157062  9.413480 
0.158910  9.416660 
0.160757  9.419616 
0.162605  9.422347 
0.164453  9.424854 
0.166301  9.427138 
0.168149  9.429201 
0.169996  9.431042 
0.171844  9.432664 
0.173692  9.434067 
0.175540  9.435252 
0.177388  9.436220 
0.179235  9.436972 
0.181083  9.437509 
0.182931  9.437831 
0.184779  9.437938 


