# distance  frequency (bands are separated by blank lines)
# End points of segments: 
#   0.00000000 0.21336410 
0.000000  3.701138 
0.002134  3.701931 
0.004267  3.704322 
0.006401  3.708317 
0.008535  3.713913 
0.010668  3.721100 
0.012802  3.729855 
0.014936  3.740146 
0.017069  3.751936 
0.019203  3.765174 
0.021336  3.779806 
0.023470  3.795768 
0.025604  3.812988 
0.027737  3.831392 
0.029871  3.850894 
0.032005  3.871407 
0.034138  3.892837 
0.036272  3.915083 
0.038406  3.938042 
0.040539  3.961601 
0.042673  3.985643 
0.044806  4.010042 
0.046940  4.034663 
0.049074  4.059355 
0.051207  4.083947 
0.053341  4.070328 
0.055475  4.027656 
0.057608  3.983459 
0.059742  3.937755 
0.061876  3.890567 
0.064009  3.841917 
0.066143  3.791827 
0.068277  3.740321 
0.070410  3.687424 
0.072544  3.633162 
0.074677  3.577563 
0.076811  3.520655 
0.078945  3.462469 
0.081078  3.403036 
0.083212  3.342390 
0.085346  3.280567 
0.087479  3.217601 
0.089613  3.153531 
0.091746  3.088396 
0.093880  3.022235 
0.096014  2.955091 
0.098147  2.887006 
0.100281  2.818023 
0.102415  2.748188 
0.104548  2.677545 
0.106682  2.606142 
0.108816  2.534025 
0.110949  2.461244 
0.113083  2.387846 
0.115217  2.313882 
0.117350  2.239402 
0.119484  2.164457 
0.121618  2.089099 
0.123751  2.013380 
0.125885  1.937353 
0.128018  1.861072 
0.130152  1.784591 
0.132286  1.707965 
0.134419  1.631249 
0.136553  1.554498 
0.138687  1.477768 
0.140820  1.401114 
0.142954  1.324589 
0.145088  1.248247 
0.147221  1.172138 
0.149355  1.096308 
0.151488  1.020796 
0.153622  0.945634 
0.155756  0.870838 
0.157889  0.796404 
0.160023  0.722292 
0.162157  0.648411 
0.164290  0.574583 
0.166424  0.500474 
0.168558  0.425468 
0.170691  0.348340 
0.172825  0.266331 
0.174958  0.171043 
0.177092  -0.065373 
0.179226  -0.174019 
0.181359  -0.222341 
0.183493  -0.249861 
0.185627  -0.264562 
0.187760  -0.269946 
0.189894  -0.268000 
0.192028  -0.260033 
0.194161  -0.247000 
0.196295  -0.229652 
0.198429  -0.208618 
0.200562  -0.184449 
0.202696  -0.157645 
0.204829  -0.128678 
0.206963  -0.097996 
0.209097  -0.066037 
0.211230  -0.033230 
0.213364  -0.000000 


0.000000  4.590958 
0.002134  4.590295 
0.004267  4.588243 
0.006401  4.584709 
0.008535  4.579614 
0.010668  4.572888 
0.012802  4.564475 
0.014936  4.554329 
0.017069  4.542414 
0.019203  4.528707 
0.021336  4.513194 
0.023470  4.495868 
0.025604  4.476732 
0.027737  4.455792 
0.029871  4.433060 
0.032005  4.408553 
0.034138  4.382289 
0.036272  4.354288 
0.038406  4.324571 
0.040539  4.293160 
0.042673  4.260077 
0.044806  4.225344 
0.046940  4.188981 
0.049074  4.151011 
0.051207  4.111453 
0.053341  4.108242 
0.055475  4.131997 
0.057608  4.154895 
0.059742  4.176505 
0.061876  4.196192 
0.064009  4.212969 
0.066143  4.225262 
0.068277  4.230702 
0.070410  4.226495 
0.072544  4.211064 
0.074677  4.185518 
0.076811  4.152584 
0.078945  4.114751 
0.081078  4.073670 
0.083212  4.030329 
0.085346  3.985312 
0.087479  3.938973 
0.089613  3.891532 
0.091746  3.843129 
0.093880  3.793858 
0.096014  3.743784 
0.098147  3.692949 
0.100281  3.641385 
0.102415  3.589111 
0.104548  3.536142 
0.106682  3.482489 
0.108816  3.428159 
0.110949  3.373154 
0.113083  3.317479 
0.115217  3.261134 
0.117350  3.204120 
0.119484  3.146435 
0.121618  3.088078 
0.123751  3.029049 
0.125885  2.969345 
0.128018  2.908965 
0.130152  2.847908 
0.132286  2.786172 
0.134419  2.723755 
0.136553  2.660658 
0.138687  2.596879 
0.140820  2.532418 
0.142954  2.467277 
0.145088  2.401456 
0.147221  2.334957 
0.149355  2.267784 
0.151488  2.199939 
0.153622  2.131427 
0.155756  2.062254 
0.157889  1.992426 
0.160023  1.921952 
0.162157  1.850840 
0.164290  1.779100 
0.166424  1.706744 
0.168558  1.633786 
0.170691  1.560239 
0.172825  1.486118 
0.174958  1.411443 
0.177092  1.336230 
0.179226  1.260500 
0.181359  1.184275 
0.183493  1.107578 
0.185627  1.030432 
0.187760  0.952864 
0.189894  0.874901 
0.192028  0.796570 
0.194161  0.717902 
0.196295  0.638926 
0.198429  0.559674 
0.200562  0.480179 
0.202696  0.400474 
0.204829  0.320592 
0.206963  0.240569 
0.209097  0.160439 
0.211230  0.080237 
0.213364  0.000000 


0.000000  5.333349 
0.002134  5.331797 
0.004267  5.327185 
0.006401  5.319603 
0.008535  5.309176 
0.010668  5.296047 
0.012802  5.280379 
0.014936  5.262344 
0.017069  5.242115 
0.019203  5.219865 
0.021336  5.195761 
0.023470  5.169960 
0.025604  5.142611 
0.027737  5.113850 
0.029871  5.083803 
0.032005  5.052583 
0.034138  5.020296 
0.036272  4.987038 
0.038406  4.952895 
0.040539  4.917951 
0.042673  4.882281 
0.044806  4.845963 
0.046940  4.809074 
0.049074  4.771698 
0.051207  4.733928 
0.053341  4.695885 
0.055475  4.657722 
0.057608  4.619660 
0.059742  4.582033 
0.061876  4.545368 
0.064009  4.510541 
0.066143  4.479005 
0.068277  4.453005 
0.070410  4.435204 
0.072544  4.427041 
0.074677  4.427260 
0.076811  4.432985 
0.078945  4.441568 
0.081078  4.451195 
0.083212  4.460707 
0.085346  4.469347 
0.087479  4.476585 
0.089613  4.482023 
0.091746  4.485340 
0.093880  4.486268 
0.096014  4.484573 
0.098147  4.480048 
0.100281  4.472510 
0.102415  4.461801 
0.104548  4.447781 
0.106682  4.430334 
0.108816  4.409369 
0.110949  4.384814 
0.113083  4.356621 
0.115217  4.324764 
0.117350  4.289235 
0.119484  4.250048 
0.121618  4.207230 
0.123751  4.160825 
0.125885  4.110886 
0.128018  4.057478 
0.130152  4.000672 
0.132286  3.940546 
0.134419  3.877180 
0.136553  3.810660 
0.138687  3.741068 
0.140820  3.668491 
0.142954  3.593014 
0.145088  3.514721 
0.147221  3.433695 
0.149355  3.350017 
0.151488  3.263769 
0.153622  3.175030 
0.155756  3.083879 
0.157889  2.990392 
0.160023  2.894647 
0.162157  2.796719 
0.164290  2.696684 
0.166424  2.594619 
0.168558  2.490599 
0.170691  2.384700 
0.172825  2.277001 
0.174958  2.167580 
0.177092  2.056514 
0.179226  1.943885 
0.181359  1.829773 
0.183493  1.714263 
0.185627  1.597437 
0.187760  1.479382 
0.189894  1.360185 
0.192028  1.239935 
0.194161  1.118723 
0.196295  0.996638 
0.198429  0.873776 
0.200562  0.750230 
0.202696  0.626096 
0.204829  0.501469 
0.206963  0.376448 
0.209097  0.251131 
0.211230  0.125615 
0.213364  0.000000 


0.000000  6.087321 
0.002134  6.087812 
0.004267  6.089293 
0.006401  6.091760 
0.008535  6.095192 
0.010668  6.099541 
0.012802  6.104741 
0.014936  6.110698 
0.017069  6.117291 
0.019203  6.124372 
0.021336  6.131760 
0.023470  6.139244 
0.025604  6.146578 
0.027737  6.153482 
0.029871  6.159642 
0.032005  6.164723 
0.034138  6.168380 
0.036272  6.170286 
0.038406  6.170164 
0.040539  6.167818 
0.042673  6.163162 
0.044806  6.156220 
0.046940  6.147110 
0.049074  6.136018 
0.051207  6.123161 
0.053341  6.108765 
0.055475  6.093043 
0.057608  6.076191 
0.059742  6.058380 
0.061876  6.039758 
0.064009  6.020452 
0.066143  6.000572 
0.068277  5.980210 
0.070410  5.959447 
0.072544  5.938352 
0.074677  5.916984 
0.076811  5.895396 
0.078945  5.873633 
0.081078  5.851736 
0.083212  5.829740 
0.085346  5.807677 
0.087479  5.785576 
0.089613  5.763461 
0.091746  5.741358 
0.093880  5.719286 
0.096014  5.697267 
0.098147  5.675319 
0.100281  5.653460 
0.102415  5.631706 
0.104548  5.610073 
0.106682  5.588578 
0.108816  5.567235 
0.110949  5.546059 
0.113083  5.525065 
0.115217  5.504269 
0.117350  5.483684 
0.119484  5.463324 
0.121618  5.443206 
0.123751  5.423343 
0.125885  5.403751 
0.128018  5.384443 
0.130152  5.365434 
0.132286  5.346740 
0.134419  5.328375 
0.136553  5.310352 
0.138687  5.292687 
0.140820  5.275393 
0.142954  5.258483 
0.145088  5.241972 
0.147221  5.225873 
0.149355  5.210196 
0.151488  5.194955 
0.153622  5.180161 
0.155756  5.165825 
0.157889  5.151956 
0.160023  5.138564 
0.162157  5.125658 
0.164290  5.113246 
0.166424  5.101335 
0.168558  5.089931 
0.170691  5.079040 
0.172825  5.068667 
0.174958  5.058817 
0.177092  5.049492 
0.179226  5.040697 
0.181359  5.032432 
0.183493  5.024700 
0.185627  5.017503 
0.187760  5.010840 
0.189894  5.004713 
0.192028  4.999121 
0.194161  4.994065 
0.196295  4.989543 
0.198429  4.985555 
0.200562  4.982101 
0.202696  4.979179 
0.204829  4.976790 
0.206963  4.974933 
0.209097  4.973606 
0.211230  4.972811 
0.213364  4.972544 


0.000000  6.494236 
0.002134  6.495147 
0.004267  6.497824 
0.006401  6.502152 
0.008535  6.507990 
0.010668  6.515169 
0.012802  6.523508 
0.014936  6.525184 
0.017069  6.518878 
0.019203  6.512079 
0.021336  6.504921 
0.023470  6.497560 
0.025604  6.490179 
0.027737  6.482991 
0.029871  6.476234 
0.032005  6.470168 
0.034138  6.465057 
0.036272  6.461151 
0.038406  6.458647 
0.040539  6.457662 
0.042673  6.458207 
0.044806  6.460185 
0.046940  6.463409 
0.049074  6.467628 
0.051207  6.472564 
0.053341  6.477935 
0.055475  6.483475 
0.057608  6.488945 
0.059742  6.494133 
0.061876  6.498856 
0.064009  6.502957 
0.066143  6.506304 
0.068277  6.508786 
0.070410  6.510311 
0.072544  6.510802 
0.074677  6.510198 
0.076811  6.508448 
0.078945  6.505516 
0.081078  6.501372 
0.083212  6.495995 
0.085346  6.489374 
0.087479  6.481501 
0.089613  6.472376 
0.091746  6.462002 
0.093880  6.450388 
0.096014  6.437545 
0.098147  6.423487 
0.100281  6.408231 
0.102415  6.391794 
0.104548  6.374198 
0.106682  6.355463 
0.108816  6.335611 
0.110949  6.314665 
0.113083  6.292650 
0.115217  6.269589 
0.117350  6.245509 
0.119484  6.220433 
0.121618  6.194390 
0.123751  6.167405 
0.125885  6.139508 
0.128018  6.110726 
0.130152  6.081092 
0.132286  6.050637 
0.134419  6.019395 
0.136553  5.987402 
0.138687  5.954696 
0.140820  5.921320 
0.142954  5.887315 
0.145088  5.852732 
0.147221  5.817619 
0.149355  5.782032 
0.151488  5.746031 
0.153622  5.709680 
0.155756  5.673047 
0.157889  5.636207 
0.160023  5.599240 
0.162157  5.562231 
0.164290  5.525272 
0.166424  5.488460 
0.168558  5.451900 
0.170691  5.415701 
0.172825  5.379982 
0.174958  5.344864 
0.177092  5.310476 
0.179226  5.276952 
0.181359  5.244431 
0.183493  5.213057 
0.185627  5.182975 
0.187760  5.154335 
0.189894  5.127284 
0.192028  5.101972 
0.194161  5.078544 
0.196295  5.057140 
0.198429  5.037896 
0.200562  5.020937 
0.202696  5.006377 
0.204829  4.994318 
0.206963  4.984846 
0.209097  4.978029 
0.211230  4.973918 
0.213364  4.972546 


0.000000  6.547932 
0.002134  6.547424 
0.004267  6.545922 
0.006401  6.543465 
0.008535  6.540099 
0.010668  6.535883 
0.012802  6.530885 
0.014936  6.532815 
0.017069  6.542895 
0.019203  6.553558 
0.021336  6.564618 
0.023470  6.575900 
0.025604  6.587239 
0.027737  6.598486 
0.029871  6.609502 
0.032005  6.620164 
0.034138  6.630358 
0.036272  6.639988 
0.038406  6.648967 
0.040539  6.657221 
0.042673  6.664685 
0.044806  6.671308 
0.046940  6.677047 
0.049074  6.681870 
0.051207  6.685754 
0.053341  6.688686 
0.055475  6.690664 
0.057608  6.691691 
0.059742  6.691785 
0.061876  6.690968 
0.064009  6.689277 
0.066143  6.686754 
0.068277  6.683452 
0.070410  6.679437 
0.072544  6.674780 
0.074677  6.669566 
0.076811  6.663886 
0.078945  6.657844 
0.081078  6.651549 
0.083212  6.645120 
0.085346  6.638683 
0.087479  6.632368 
0.089613  6.626310 
0.091746  6.620644 
0.093880  6.615506 
0.096014  6.611026 
0.098147  6.607330 
0.100281  6.604533 
0.102415  6.602740 
0.104548  6.602038 
0.106682  6.602502 
0.108816  6.604185 
0.110949  6.607124 
0.113083  6.611335 
0.115217  6.616816 
0.117350  6.623546 
0.119484  6.631489 
0.121618  6.640595 
0.123751  6.650802 
0.125885  6.662036 
0.128018  6.674220 
0.130152  6.687267 
0.132286  6.701090 
0.134419  6.715600 
0.136553  6.730707 
0.138687  6.746324 
0.140820  6.762364 
0.142954  6.778746 
0.145088  6.795391 
0.147221  6.812223 
0.149355  6.829173 
0.151488  6.846173 
0.153622  6.863160 
0.155756  6.880077 
0.157889  6.896869 
0.160023  6.913485 
0.162157  6.929876 
0.164290  6.945997 
0.166424  6.961807 
0.168558  6.977264 
0.170691  6.992329 
0.172825  7.006967 
0.174958  7.021140 
0.177092  7.034815 
0.179226  7.047956 
0.181359  7.060530 
0.183493  7.072503 
0.185627  7.083842 
0.187760  7.094514 
0.189894  7.104487 
0.192028  7.113727 
0.194161  7.122203 
0.196295  7.129885 
0.198429  7.136743 
0.200562  7.142749 
0.202696  7.147878 
0.204829  7.152107 
0.206963  7.155418 
0.209097  7.157794 
0.211230  7.159224 
0.213364  7.159702 


0.000000  8.602993 
0.002134  8.603253 
0.004267  8.604034 
0.006401  8.605332 
0.008535  8.607140 
0.010668  8.609449 
0.012802  8.612247 
0.014936  8.615517 
0.017069  8.619244 
0.019203  8.623407 
0.021336  8.627983 
0.023470  8.632947 
0.025604  8.638275 
0.027737  8.643936 
0.029871  8.649902 
0.032005  8.656142 
0.034138  8.662624 
0.036272  8.669314 
0.038406  8.676179 
0.040539  8.683186 
0.042673  8.690300 
0.044806  8.697488 
0.046940  8.704717 
0.049074  8.711952 
0.051207  8.719162 
0.053341  8.726316 
0.055475  8.733381 
0.057608  8.740330 
0.059742  8.747132 
0.061876  8.753762 
0.064009  8.760193 
0.066143  8.766400 
0.068277  8.772360 
0.070410  8.778049 
0.072544  8.783449 
0.074677  8.788537 
0.076811  8.793297 
0.078945  8.797709 
0.081078  8.801759 
0.083212  8.805430 
0.085346  8.808709 
0.087479  8.811582 
0.089613  8.814039 
0.091746  8.816068 
0.093880  8.817660 
0.096014  8.818809 
0.098147  8.819507 
0.100281  8.819751 
0.102415  8.819539 
0.104548  8.818869 
0.106682  8.817745 
0.108816  8.816170 
0.110949  8.814150 
0.113083  8.811695 
0.115217  8.808815 
0.117350  8.805523 
0.119484  8.801835 
0.121618  8.797768 
0.123751  8.793341 
0.125885  8.788574 
0.128018  8.783488 
0.130152  8.778107 
0.132286  8.772453 
0.134419  8.766551 
0.136553  8.760424 
0.138687  8.754099 
0.140820  8.747598 
0.142954  8.740947 
0.145088  8.734169 
0.147221  8.727290 
0.149355  8.720334 
0.151488  8.713323 
0.153622  8.706282 
0.155756  8.699233 
0.157889  8.692200 
0.160023  8.685205 
0.162157  8.678271 
0.164290  8.671419 
0.166424  8.664671 
0.168558  8.658048 
0.170691  8.651571 
0.172825  8.645261 
0.174958  8.639138 
0.177092  8.633220 
0.179226  8.627528 
0.181359  8.622079 
0.183493  8.616891 
0.185627  8.611981 
0.187760  8.607364 
0.189894  8.603058 
0.192028  8.599075 
0.194161  8.595429 
0.196295  8.592132 
0.198429  8.589197 
0.200562  8.586631 
0.202696  8.584446 
0.204829  8.582647 
0.206963  8.581241 
0.209097  8.580234 
0.211230  8.579628 
0.213364  8.579425 


0.000000  9.237063 
0.002134  9.237076 
0.004267  9.237123 
0.006401  9.237217 
0.008535  9.237373 
0.010668  9.237611 
0.012802  9.237950 
0.014936  9.238414 
0.017069  9.239027 
0.019203  9.239820 
0.021336  9.240820 
0.023470  9.242062 
0.025604  9.243580 
0.027737  9.245411 
0.029871  9.247591 
0.032005  9.250161 
0.034138  9.253161 
0.036272  9.256631 
0.038406  9.260613 
0.040539  9.265147 
0.042673  9.270274 
0.044806  9.276032 
0.046940  9.282460 
0.049074  9.289592 
0.051207  9.297462 
0.053341  9.306099 
0.055475  9.315530 
0.057608  9.325778 
0.059742  9.336859 
0.061876  9.348790 
0.064009  9.361578 
0.066143  9.375228 
0.068277  9.389738 
0.070410  9.405105 
0.072544  9.421315 
0.074677  9.414969 
0.076811  9.399451 
0.078945  9.384093 
0.081078  9.368919 
0.083212  9.353951 
0.085346  9.339208 
0.087479  9.324705 
0.089613  9.310455 
0.091746  9.296467 
0.093880  9.282746 
0.096014  9.269292 
0.098147  9.256105 
0.100281  9.243177 
0.102415  9.230498 
0.104548  9.218053 
0.106682  9.205825 
0.108816  9.193789 
0.110949  9.181922 
0.113083  9.170193 
0.115217  9.158570 
0.117350  9.147017 
0.119484  9.135499 
0.121618  9.123976 
0.123751  9.112409 
0.125885  9.100757 
0.128018  9.088983 
0.130152  9.077046 
0.132286  9.064912 
0.134419  9.052545 
0.136553  9.039916 
0.138687  9.026997 
0.140820  9.013765 
0.142954  9.000202 
0.145088  8.986295 
0.147221  8.972037 
0.149355  8.957427 
0.151488  8.942469 
0.153622  8.927175 
0.155756  8.911562 
0.157889  8.895655 
0.160023  8.879485 
0.162157  8.863089 
0.164290  8.846511 
0.166424  8.829802 
0.168558  8.813019 
0.170691  8.796222 
0.172825  8.779481 
0.174958  8.762868 
0.177092  8.746459 
0.179226  8.730336 
0.181359  8.714582 
0.183493  8.699285 
0.185627  8.684532 
0.187760  8.670413 
0.189894  8.657016 
0.192028  8.644430 
0.194161  8.632740 
0.196295  8.622028 
0.198429  8.612372 
0.200562  8.603845 
0.202696  8.596511 
0.204829  8.590428 
0.206963  8.585644 
0.209097  8.582199 
0.211230  8.580121 
0.213364  8.579426 


0.000000  9.793096 
0.002134  9.792697 
0.004267  9.791498 
0.006401  9.789499 
0.008535  9.786702 
0.010668  9.783111 
0.012802  9.778735 
0.014936  9.773582 
0.017069  9.767664 
0.019203  9.760997 
0.021336  9.753596 
0.023470  9.745480 
0.025604  9.736671 
0.027737  9.727191 
0.029871  9.717066 
0.032005  9.706323 
0.034138  9.694990 
0.036272  9.683099 
0.038406  9.670681 
0.040539  9.657770 
0.042673  9.644402 
0.044806  9.630613 
0.046940  9.616441 
0.049074  9.601923 
0.051207  9.587098 
0.053341  9.572007 
0.055475  9.556688 
0.057608  9.541181 
0.059742  9.525527 
0.061876  9.509763 
0.064009  9.493929 
0.066143  9.478062 
0.068277  9.462198 
0.070410  9.446373 
0.072544  9.430619 
0.074677  9.438354 
0.076811  9.456202 
0.078945  9.474835 
0.081078  9.494222 
0.083212  9.514333 
0.085346  9.535132 
0.087479  9.556580 
0.089613  9.578636 
0.091746  9.601258 
0.093880  9.624401 
0.096014  9.648019 
0.098147  9.672066 
0.100281  9.696496 
0.102415  9.721261 
0.104548  9.746316 
0.106682  9.771612 
0.108816  9.797106 
0.110949  9.822752 
0.113083  9.848507 
0.115217  9.874329 
0.117350  9.900176 
0.119484  9.926009 
0.121618  9.951789 
0.123751  9.977479 
0.125885  10.003042 
0.128018  10.028446 
0.130152  10.053656 
0.132286  10.078641 
0.134419  10.103369 
0.136553  10.127812 
0.138687  10.151941 
0.140820  10.175728 
0.142954  10.199147 
0.145088  10.222171 
0.147221  10.244776 
0.149355  10.266937 
0.151488  10.288631 
0.153622  10.309834 
0.155756  10.330525 
0.157889  10.350681 
0.160023  10.370280 
0.162157  10.389303 
0.164290  10.407727 
0.166424  10.425535 
0.168558  10.442705 
0.170691  10.459219 
0.172825  10.475058 
0.174958  10.490204 
0.177092  10.504641 
0.179226  10.518351 
0.181359  10.531317 
0.183493  10.543525 
0.185627  10.554960 
0.187760  10.565607 
0.189894  10.575454 
0.192028  10.584488 
0.194161  10.592697 
0.196295  10.600072 
0.198429  10.606601 
0.200562  10.612278 
0.202696  10.617094 
0.204829  10.621044 
0.206963  10.624121 
0.209097  10.626322 
0.211230  10.627644 
0.213364  10.628085 


