# distance  frequency (bands are separated by blank lines)
# End points of segments: 
#   0.00000000 0.07497370 
0.000000  -0.004923 
0.000750  0.009256 
0.001499  0.019436 
0.002249  0.029399 
0.002999  0.039310 
0.003749  0.049197 
0.004498  0.059070 
0.005248  0.068933 
0.005998  0.078787 
0.006748  0.088633 
0.007497  0.098471 
0.008247  0.108301 
0.008997  0.118123 
0.009747  0.127938 
0.010496  0.137745 
0.011246  0.147545 
0.011996  0.157338 
0.012745  0.167125 
0.013495  0.176905 
0.014245  0.186682 
0.014995  0.196454 
0.015745  0.206224 
0.016494  0.215992 
0.017244  0.225761 
0.017994  0.235532 
0.018743  0.245307 
0.019493  0.255088 
0.020243  0.264878 
0.020993  0.274679 
0.021742  0.284493 
0.022492  0.294325 
0.023242  0.304177 
0.023992  0.314051 
0.024741  0.323953 
0.025491  0.333885 
0.026241  0.343851 
0.026991  0.353855 
0.027740  0.363901 
0.028490  0.373994 
0.029240  0.384138 
0.029989  0.394336 
0.030739  0.404594 
0.031489  0.414916 
0.032239  0.425307 
0.032988  0.435770 
0.033738  0.446311 
0.034488  0.456935 
0.035238  0.467645 
0.035987  0.478445 
0.036737  0.489342 
0.037487  0.500337 
0.038237  0.511436 
0.038986  0.522642 
0.039736  0.533960 
0.040486  0.545392 
0.041236  0.556941 
0.041985  0.568612 
0.042735  0.580407 
0.043485  0.592327 
0.044235  0.604377 
0.044984  0.616557 
0.045734  0.628869 
0.046484  0.641315 
0.047233  0.653895 
0.047983  0.666611 
0.048733  0.679462 
0.049483  0.692449 
0.050232  0.705572 
0.050982  0.718828 
0.051732  0.732218 
0.052482  0.745740 
0.053231  0.759392 
0.053981  0.773171 
0.054731  0.787075 
0.055481  0.801099 
0.056230  0.815240 
0.056980  0.829489 
0.057730  0.843835 
0.058479  0.858245 
0.059229  0.872528 
0.059979  0.879099 
0.060729  0.870044 
0.061478  0.859614 
0.062228  0.848488 
0.062978  0.836830 
0.063728  0.824777 
0.064477  0.812469 
0.065227  0.800050 
0.065977  0.787672 
0.066727  0.775488 
0.067476  0.763657 
0.068226  0.752337 
0.068976  0.741685 
0.069725  0.731856 
0.070475  0.722994 
0.071225  0.715237 
0.071975  0.708708 
0.072724  0.703512 
0.073474  0.699736 
0.074224  0.697444 
0.074974  0.696676 


0.000000  -0.002323 
0.000750  0.017628 
0.001499  0.035773 
0.002249  0.053786 
0.002999  0.071750 
0.003749  0.089678 
0.004498  0.107567 
0.005248  0.125415 
0.005998  0.143215 
0.006748  0.160964 
0.007497  0.178654 
0.008247  0.196281 
0.008997  0.213839 
0.009747  0.231322 
0.010496  0.248724 
0.011246  0.266041 
0.011996  0.283266 
0.012745  0.300396 
0.013495  0.317424 
0.014245  0.334346 
0.014995  0.351158 
0.015745  0.367855 
0.016494  0.384432 
0.017244  0.400885 
0.017994  0.417211 
0.018743  0.433405 
0.019493  0.449464 
0.020243  0.465383 
0.020993  0.481160 
0.021742  0.496791 
0.022492  0.512272 
0.023242  0.527601 
0.023992  0.542773 
0.024741  0.557787 
0.025491  0.572637 
0.026241  0.587321 
0.026991  0.601835 
0.027740  0.616177 
0.028490  0.630341 
0.029240  0.644324 
0.029989  0.658121 
0.030739  0.671728 
0.031489  0.685139 
0.032239  0.698350 
0.032988  0.711353 
0.033738  0.724141 
0.034488  0.736707 
0.035238  0.749043 
0.035987  0.761139 
0.036737  0.772983 
0.037487  0.784565 
0.038237  0.795871 
0.038986  0.806887 
0.039736  0.817595 
0.040486  0.827978 
0.041236  0.838016 
0.041985  0.847686 
0.042735  0.856965 
0.043485  0.865824 
0.044235  0.874236 
0.044984  0.882166 
0.045734  0.889583 
0.046484  0.896447 
0.047233  0.902719 
0.047983  0.908357 
0.048733  0.913316 
0.049483  0.917552 
0.050232  0.921017 
0.050982  0.923665 
0.051732  0.925449 
0.052482  0.926326 
0.053231  0.926257 
0.053981  0.925206 
0.054731  0.923147 
0.055481  0.920060 
0.056230  0.915938 
0.056980  0.910787 
0.057730  0.904633 
0.058479  0.897533 
0.059229  0.889720 
0.059979  0.888831 
0.060729  0.902851 
0.061478  0.917610 
0.062228  0.932528 
0.062978  0.947547 
0.063728  0.962649 
0.064477  0.977821 
0.065227  0.993056 
0.065977  1.008344 
0.066727  1.023678 
0.067476  1.039049 
0.068226  1.054449 
0.068976  1.069865 
0.069725  1.085288 
0.070475  1.100699 
0.071225  1.116079 
0.071975  1.131388 
0.072724  1.146553 
0.073474  1.161375 
0.074224  1.175080 
0.074974  1.182785 


0.000000  -0.000992 
0.000750  0.027447 
0.001499  0.055073 
0.002249  0.082662 
0.002999  0.110241 
0.003749  0.137818 
0.004498  0.165394 
0.005248  0.192971 
0.005998  0.220549 
0.006748  0.248127 
0.007497  0.275707 
0.008247  0.303288 
0.008997  0.330870 
0.009747  0.358452 
0.010496  0.386033 
0.011246  0.413613 
0.011996  0.441191 
0.012745  0.468765 
0.013495  0.496335 
0.014245  0.523898 
0.014995  0.551454 
0.015745  0.579000 
0.016494  0.606534 
0.017244  0.634053 
0.017994  0.661556 
0.018743  0.689040 
0.019493  0.716502 
0.020243  0.743938 
0.020993  0.771347 
0.021742  0.798723 
0.022492  0.826065 
0.023242  0.853368 
0.023992  0.880628 
0.024741  0.907841 
0.025491  0.935003 
0.026241  0.962110 
0.026991  0.989158 
0.027740  1.016141 
0.028490  1.043055 
0.029240  1.069895 
0.029989  1.096657 
0.030739  1.123335 
0.031489  1.149924 
0.032239  1.176418 
0.032988  1.202814 
0.033738  1.229103 
0.034488  1.255282 
0.035238  1.281344 
0.035987  1.307282 
0.036737  1.333091 
0.037487  1.358763 
0.038237  1.384289 
0.038986  1.409662 
0.039736  1.434871 
0.040486  1.459903 
0.041236  1.484741 
0.041985  1.509363 
0.042735  1.533734 
0.043485  1.557801 
0.044235  1.581467 
0.044984  1.604540 
0.045734  1.626582 
0.046484  1.646430 
0.047233  1.660873 
0.047983  1.665235 
0.048733  1.661147 
0.049483  1.653307 
0.050232  1.643878 
0.050982  1.633624 
0.051732  1.622850 
0.052482  1.611696 
0.053231  1.600236 
0.053981  1.588511 
0.054731  1.576548 
0.055481  1.564365 
0.056230  1.551976 
0.056980  1.539390 
0.057730  1.526616 
0.058479  1.513661 
0.059229  1.500532 
0.059979  1.487234 
0.060729  1.473775 
0.061478  1.460159 
0.062228  1.446393 
0.062978  1.432482 
0.063728  1.418433 
0.064477  1.404251 
0.065227  1.389944 
0.065977  1.375517 
0.066727  1.360979 
0.067476  1.346337 
0.068226  1.331599 
0.068976  1.316776 
0.069725  1.301879 
0.070475  1.286923 
0.071225  1.271930 
0.071975  1.256937 
0.072724  1.242018 
0.073474  1.227372 
0.074224  1.213773 
0.074974  1.206104 


0.000000  1.992307 
0.000750  1.992243 
0.001499  1.992051 
0.002249  1.991730 
0.002999  1.991280 
0.003749  1.990701 
0.004498  1.989993 
0.005248  1.989154 
0.005998  1.988184 
0.006748  1.987083 
0.007497  1.985849 
0.008247  1.984482 
0.008997  1.982979 
0.009747  1.981341 
0.010496  1.979566 
0.011246  1.977653 
0.011996  1.975600 
0.012745  1.973406 
0.013495  1.971070 
0.014245  1.968590 
0.014995  1.965964 
0.015745  1.963191 
0.016494  1.960269 
0.017244  1.957197 
0.017994  1.953973 
0.018743  1.950596 
0.019493  1.947063 
0.020243  1.943374 
0.020993  1.939526 
0.021742  1.935518 
0.022492  1.931349 
0.023242  1.927016 
0.023992  1.922518 
0.024741  1.917854 
0.025491  1.913022 
0.026241  1.908021 
0.026991  1.902849 
0.027740  1.897505 
0.028490  1.891988 
0.029240  1.886296 
0.029989  1.880428 
0.030739  1.874384 
0.031489  1.868162 
0.032239  1.861761 
0.032988  1.855181 
0.033738  1.848421 
0.034488  1.841481 
0.035238  1.834361 
0.035987  1.827060 
0.036737  1.819581 
0.037487  1.811924 
0.038237  1.804091 
0.038986  1.796086 
0.039736  1.787914 
0.040486  1.779582 
0.041236  1.771101 
0.041985  1.762490 
0.042735  1.753778 
0.043485  1.745015 
0.044235  1.736293 
0.044984  1.727799 
0.045734  1.719967 
0.046484  1.713958 
0.047233  1.712979 
0.047983  1.721703 
0.048733  1.738494 
0.049483  1.755643 
0.050232  1.745416 
0.050982  1.735457 
0.051732  1.725856 
0.052482  1.716667 
0.053231  1.707944 
0.053981  1.699733 
0.054731  1.692081 
0.055481  1.685026 
0.056230  1.678602 
0.056980  1.672833 
0.057730  1.667733 
0.058479  1.663308 
0.059229  1.659553 
0.059979  1.656454 
0.060729  1.653985 
0.061478  1.652113 
0.062228  1.650797 
0.062978  1.649990 
0.063728  1.649639 
0.064477  1.649686 
0.065227  1.650074 
0.065977  1.650740 
0.066727  1.651625 
0.067476  1.652667 
0.068226  1.653811 
0.068976  1.654999 
0.069725  1.656180 
0.070475  1.657307 
0.071225  1.658337 
0.071975  1.659232 
0.072724  1.659961 
0.073474  1.660501 
0.074224  1.660831 
0.074974  1.660943 


0.000000  2.189794 
0.000750  2.189674 
0.001499  2.189314 
0.002249  2.188715 
0.002999  2.187877 
0.003749  2.186802 
0.004498  2.185492 
0.005248  2.183949 
0.005998  2.182175 
0.006748  2.180172 
0.007497  2.177944 
0.008247  2.175493 
0.008997  2.172823 
0.009747  2.169938 
0.010496  2.166839 
0.011246  2.163531 
0.011996  2.160017 
0.012745  2.156300 
0.013495  2.152384 
0.014245  2.148271 
0.014995  2.143964 
0.015745  2.139465 
0.016494  2.134778 
0.017244  2.129904 
0.017994  2.124844 
0.018743  2.119601 
0.019493  2.114176 
0.020243  2.108568 
0.020993  2.102780 
0.021742  2.096811 
0.022492  2.090661 
0.023242  2.084329 
0.023992  2.077816 
0.024741  2.071120 
0.025491  2.064240 
0.026241  2.057175 
0.026991  2.049923 
0.027740  2.042483 
0.028490  2.034854 
0.029240  2.027033 
0.029989  2.019021 
0.030739  2.010814 
0.031489  2.002412 
0.032239  1.993815 
0.032988  1.985022 
0.033738  1.976034 
0.034488  1.966850 
0.035238  1.957473 
0.035987  1.947906 
0.036737  1.938151 
0.037487  1.928213 
0.038237  1.918099 
0.038986  1.907815 
0.039736  1.897372 
0.040486  1.886780 
0.041236  1.876052 
0.041985  1.865205 
0.042735  1.854257 
0.043485  1.843228 
0.044235  1.832143 
0.044984  1.821029 
0.045734  1.809916 
0.046484  1.798839 
0.047233  1.787836 
0.047983  1.776948 
0.048733  1.766219 
0.049483  1.758707 
0.050232  1.780031 
0.050982  1.801832 
0.051732  1.823765 
0.052482  1.845689 
0.053231  1.867527 
0.053981  1.889238 
0.054731  1.910793 
0.055481  1.932174 
0.056230  1.953368 
0.056980  1.974363 
0.057730  1.995151 
0.058479  2.015725 
0.059229  2.036077 
0.059979  2.056200 
0.060729  2.076088 
0.061478  2.095731 
0.062228  2.115121 
0.062978  2.134248 
0.063728  2.153100 
0.064477  2.171661 
0.065227  2.189913 
0.065977  2.207832 
0.066727  2.225386 
0.067476  2.242535 
0.068226  2.259225 
0.068976  2.275379 
0.069725  2.290892 
0.070475  2.305615 
0.071225  2.319336 
0.071975  2.331748 
0.072724  2.342423 
0.073474  2.350794 
0.074224  2.356205 
0.074974  2.358087 


0.000000  2.958460 
0.000750  2.958198 
0.001499  2.957442 
0.002249  2.956274 
0.002999  2.954787 
0.003749  2.953061 
0.004498  2.951161 
0.005248  2.949130 
0.005998  2.947000 
0.006748  2.944794 
0.007497  2.942524 
0.008247  2.940202 
0.008997  2.937833 
0.009747  2.935422 
0.010496  2.932971 
0.011246  2.930481 
0.011996  2.927953 
0.012745  2.925384 
0.013495  2.922775 
0.014245  2.920122 
0.014995  2.917424 
0.015745  2.914678 
0.016494  2.911881 
0.017244  2.909029 
0.017994  2.906119 
0.018743  2.903147 
0.019493  2.900109 
0.020243  2.897000 
0.020993  2.893816 
0.021742  2.890552 
0.022492  2.887203 
0.023242  2.883764 
0.023992  2.880230 
0.024741  2.876595 
0.025491  2.872854 
0.026241  2.869001 
0.026991  2.865029 
0.027740  2.860934 
0.028490  2.856708 
0.029240  2.852346 
0.029989  2.847842 
0.030739  2.843188 
0.031489  2.838380 
0.032239  2.833411 
0.032988  2.828274 
0.033738  2.822964 
0.034488  2.817475 
0.035238  2.811802 
0.035987  2.805938 
0.036737  2.799880 
0.037487  2.793623 
0.038237  2.787163 
0.038986  2.780495 
0.039736  2.773618 
0.040486  2.766529 
0.041236  2.759226 
0.041985  2.751709 
0.042735  2.743978 
0.043485  2.736034 
0.044235  2.727878 
0.044984  2.719516 
0.045734  2.710949 
0.046484  2.702185 
0.047233  2.693230 
0.047983  2.684091 
0.048733  2.674779 
0.049483  2.665304 
0.050232  2.655679 
0.050982  2.645916 
0.051732  2.636030 
0.052482  2.626039 
0.053231  2.615960 
0.053981  2.605813 
0.054731  2.595617 
0.055481  2.585396 
0.056230  2.575172 
0.056980  2.564971 
0.057730  2.554819 
0.058479  2.544744 
0.059229  2.534774 
0.059979  2.524939 
0.060729  2.515271 
0.061478  2.505801 
0.062228  2.496564 
0.062978  2.487591 
0.063728  2.478920 
0.064477  2.470583 
0.065227  2.462618 
0.065977  2.455060 
0.066727  2.447944 
0.067476  2.441305 
0.068226  2.435177 
0.068976  2.429593 
0.069725  2.424584 
0.070475  2.420178 
0.071225  2.416402 
0.071975  2.413280 
0.072724  2.410830 
0.073474  2.409069 
0.074224  2.408007 
0.074974  2.407652 


0.000000  2.981579 
0.000750  2.981838 
0.001499  2.982582 
0.002249  2.983731 
0.002999  2.985190 
0.003749  2.986876 
0.004498  2.988724 
0.005248  2.990687 
0.005998  2.992730 
0.006748  2.994828 
0.007497  2.996965 
0.008247  2.999124 
0.008997  3.001297 
0.009747  3.003474 
0.010496  3.005647 
0.011246  3.007812 
0.011996  3.009962 
0.012745  3.012093 
0.013495  3.014200 
0.014245  3.016281 
0.014995  3.018330 
0.015745  3.020340 
0.016494  3.018673 
0.017244  3.012241 
0.017994  3.005841 
0.018743  2.999487 
0.019493  2.993187 
0.020243  2.986948 
0.020993  2.980774 
0.021742  2.974673 
0.022492  2.968648 
0.023242  2.962706 
0.023992  2.956850 
0.024741  2.951085 
0.025491  2.945415 
0.026241  2.939843 
0.026991  2.934373 
0.027740  2.929008 
0.028490  2.923751 
0.029240  2.918604 
0.029989  2.913571 
0.030739  2.908653 
0.031489  2.903852 
0.032239  2.899170 
0.032988  2.894608 
0.033738  2.890166 
0.034488  2.885846 
0.035238  2.881647 
0.035987  2.877568 
0.036737  2.873610 
0.037487  2.869769 
0.038237  2.866043 
0.038986  2.862430 
0.039736  2.858924 
0.040486  2.855521 
0.041236  2.852214 
0.041985  2.848994 
0.042735  2.845852 
0.043485  2.842774 
0.044235  2.839746 
0.044984  2.836750 
0.045734  2.833764 
0.046484  2.830761 
0.047233  2.827711 
0.047983  2.824576 
0.048733  2.821311 
0.049483  2.817864 
0.050232  2.814177 
0.050982  2.810182 
0.051732  2.805808 
0.052482  2.800984 
0.053231  2.795641 
0.053981  2.789723 
0.054731  2.783188 
0.055481  2.776018 
0.056230  2.768215 
0.056980  2.759800 
0.057730  2.750808 
0.058479  2.741283 
0.059229  2.731272 
0.059979  2.720822 
0.060729  2.709980 
0.061478  2.698787 
0.062228  2.687281 
0.062978  2.675499 
0.063728  2.663475 
0.064477  2.651242 
0.065227  2.638834 
0.065977  2.626289 
0.066727  2.613648 
0.067476  2.600960 
0.068226  2.588290 
0.068976  2.575717 
0.069725  2.563353 
0.070475  2.551351 
0.071225  2.539928 
0.071975  2.529392 
0.072724  2.520174 
0.073474  2.512843 
0.074224  2.508054 
0.074974  2.506380 


0.000000  3.134021 
0.000750  3.133438 
0.001499  3.131746 
0.002249  3.129082 
0.002999  3.125620 
0.003749  3.121517 
0.004498  3.116908 
0.005248  3.111896 
0.005998  3.106561 
0.006748  3.100965 
0.007497  3.095156 
0.008247  3.089175 
0.008997  3.083053 
0.009747  3.076819 
0.010496  3.070495 
0.011246  3.064101 
0.011996  3.057657 
0.012745  3.051176 
0.013495  3.044674 
0.014245  3.038164 
0.014995  3.031657 
0.015745  3.025168 
0.016494  3.022342 
0.017244  3.024274 
0.017994  3.026170 
0.018743  3.028024 
0.019493  3.029832 
0.020243  3.031592 
0.020993  3.033302 
0.021742  3.034962 
0.022492  3.036569 
0.023242  3.038123 
0.023992  3.039623 
0.024741  3.041068 
0.025491  3.042458 
0.026241  3.043793 
0.026991  3.045073 
0.027740  3.046298 
0.028490  3.047468 
0.029240  3.048584 
0.029989  3.049647 
0.030739  3.050657 
0.031489  3.051616 
0.032239  3.052525 
0.032988  3.053385 
0.033738  3.054197 
0.034488  3.054963 
0.035238  3.055684 
0.035987  3.056361 
0.036737  3.056995 
0.037487  3.057563 
0.038237  3.053046 
0.038986  3.045776 
0.039736  3.038355 
0.040486  3.030797 
0.041236  3.023112 
0.041985  3.015310 
0.042735  3.007401 
0.043485  2.999399 
0.044235  2.991319 
0.044984  2.983179 
0.045734  2.974999 
0.046484  2.966807 
0.047233  2.958631 
0.047983  2.950509 
0.048733  2.942482 
0.049483  2.934601 
0.050232  2.926923 
0.050982  2.919511 
0.051732  2.912433 
0.052482  2.905759 
0.053231  2.899553 
0.053981  2.893868 
0.054731  2.888740 
0.055481  2.884185 
0.056230  2.880197 
0.056980  2.876751 
0.057730  2.873807 
0.058479  2.871319 
0.059229  2.869234 
0.059979  2.867504 
0.060729  2.866081 
0.061478  2.864922 
0.062228  2.863989 
0.062978  2.863247 
0.063728  2.862667 
0.064477  2.862223 
0.065227  2.861891 
0.065977  2.861653 
0.066727  2.861490 
0.067476  2.861387 
0.068226  2.861331 
0.068976  2.861311 
0.069725  2.861315 
0.070475  2.861336 
0.071225  2.861365 
0.071975  2.861398 
0.072724  2.861428 
0.073474  2.861453 
0.074224  2.861468 
0.074974  2.861474 


0.000000  3.180407 
0.000750  3.180723 
0.001499  3.181619 
0.002249  3.182957 
0.002999  3.184576 
0.003749  3.186323 
0.004498  3.188079 
0.005248  3.189754 
0.005998  3.191284 
0.006748  3.192627 
0.007497  3.193753 
0.008247  3.194644 
0.008997  3.195289 
0.009747  3.195682 
0.010496  3.195824 
0.011246  3.195713 
0.011996  3.195355 
0.012745  3.194753 
0.013495  3.193912 
0.014245  3.192836 
0.014995  3.191532 
0.015745  3.190004 
0.016494  3.188257 
0.017244  3.186294 
0.017994  3.184121 
0.018743  3.181740 
0.019493  3.179153 
0.020243  3.176365 
0.020993  3.173378 
0.021742  3.170193 
0.022492  3.166811 
0.023242  3.163236 
0.023992  3.159468 
0.024741  3.155509 
0.025491  3.151359 
0.026241  3.147020 
0.026991  3.142493 
0.027740  3.137779 
0.028490  3.132879 
0.029240  3.127795 
0.029989  3.122527 
0.030739  3.117078 
0.031489  3.111449 
0.032239  3.105642 
0.032988  3.099659 
0.033738  3.093502 
0.034488  3.087173 
0.035238  3.080677 
0.035987  3.074016 
0.036737  3.067196 
0.037487  3.060244 
0.038237  3.058189 
0.038986  3.058702 
0.039736  3.059192 
0.040486  3.059652 
0.041236  3.060082 
0.041985  3.060485 
0.042735  3.060861 
0.043485  3.061213 
0.044235  3.061542 
0.044984  3.061850 
0.045734  3.062139 
0.046484  3.062409 
0.047233  3.062662 
0.047983  3.062900 
0.048733  3.063123 
0.049483  3.063334 
0.050232  3.063532 
0.050982  3.063719 
0.051732  3.063896 
0.052482  3.064064 
0.053231  3.064223 
0.053981  3.064373 
0.054731  3.064517 
0.055481  3.064653 
0.056230  3.064783 
0.056980  3.064906 
0.057730  3.065024 
0.058479  3.065136 
0.059229  3.065243 
0.059979  3.065345 
0.060729  3.065441 
0.061478  3.065533 
0.062228  3.065620 
0.062978  3.065702 
0.063728  3.065779 
0.064477  3.065851 
0.065227  3.065919 
0.065977  3.065982 
0.066727  3.066040 
0.067476  3.066093 
0.068226  3.066141 
0.068976  3.066185 
0.069725  3.066223 
0.070475  3.066256 
0.071225  3.066285 
0.071975  3.066308 
0.072724  3.066326 
0.073474  3.066339 
0.074224  3.066347 
0.074974  3.066349 


0.000000  3.347096 
0.000750  3.347202 
0.001499  3.347520 
0.002249  3.348042 
0.002999  3.348762 
0.003749  3.349667 
0.004498  3.350743 
0.005248  3.351972 
0.005998  3.353334 
0.006748  3.354810 
0.007497  3.356375 
0.008247  3.358007 
0.008997  3.359683 
0.009747  3.361381 
0.010496  3.363081 
0.011246  3.364762 
0.011996  3.366408 
0.012745  3.368004 
0.013495  3.369537 
0.014245  3.370997 
0.014995  3.372377 
0.015745  3.373671 
0.016494  3.374876 
0.017244  3.375991 
0.017994  3.377016 
0.018743  3.377954 
0.019493  3.378808 
0.020243  3.379581 
0.020993  3.380279 
0.021742  3.380908 
0.022492  3.381472 
0.023242  3.381979 
0.023992  3.382434 
0.024741  3.382844 
0.025491  3.383214 
0.026241  3.383551 
0.026991  3.383859 
0.027740  3.384144 
0.028490  3.384411 
0.029240  3.384665 
0.029989  3.384909 
0.030739  3.385147 
0.031489  3.385382 
0.032239  3.385619 
0.032988  3.385858 
0.033738  3.386102 
0.034488  3.386353 
0.035238  3.386613 
0.035987  3.386883 
0.036737  3.387163 
0.037487  3.387455 
0.038237  3.387757 
0.038986  3.388072 
0.039736  3.388398 
0.040486  3.388734 
0.041236  3.389082 
0.041985  3.389439 
0.042735  3.389806 
0.043485  3.390180 
0.044235  3.390561 
0.044984  3.390949 
0.045734  3.391340 
0.046484  3.391736 
0.047233  3.392133 
0.047983  3.392531 
0.048733  3.392929 
0.049483  3.393324 
0.050232  3.393716 
0.050982  3.394104 
0.051732  3.394485 
0.052482  3.394860 
0.053231  3.395226 
0.053981  3.395583 
0.054731  3.395930 
0.055481  3.396265 
0.056230  3.396589 
0.056980  3.396900 
0.057730  3.397197 
0.058479  3.397481 
0.059229  3.397750 
0.059979  3.398005 
0.060729  3.398245 
0.061478  3.398470 
0.062228  3.398680 
