# distance  frequency (bands are separated by blank lines)
# End points of segments: 
#   0.00000000 0.15105140 
0.000000  1.402857 
0.001510  1.403135 
0.003021  1.403968 
0.004531  1.405354 
0.006042  1.407291 
0.007553  1.409774 
0.009063  1.412799 
0.010574  1.416360 
0.012084  1.420449 
0.013595  1.425060 
0.015105  1.430183 
0.016616  1.435812 
0.018126  1.441937 
0.019637  1.448549 
0.021147  1.455640 
0.022658  1.463203 
0.024168  1.471229 
0.025679  1.479713 
0.027189  1.488649 
0.028700  1.498032 
0.030210  1.507857 
0.031721  1.518123 
0.033231  1.528824 
0.034742  1.539959 
0.036252  1.551525 
0.037763  1.563520 
0.039273  1.575941 
0.040784  1.588785 
0.042294  1.602048 
0.043805  1.615726 
0.045315  1.629813 
0.046826  1.644303 
0.048336  1.659188 
0.049847  1.674457 
0.051358  1.690100 
0.052868  1.706102 
0.054379  1.722447 
0.055889  1.739116 
0.057399  1.756088 
0.058910  1.773338 
0.060421  1.790838 
0.061931  1.808560 
0.063442  1.826471 
0.064952  1.844535 
0.066463  1.862715 
0.067973  1.880970 
0.069484  1.899258 
0.070994  1.917535 
0.072505  1.935756 
0.074015  1.953873 
0.075526  1.971839 
0.077036  1.989606 
0.078547  2.007126 
0.080057  2.024351 
0.081568  2.041235 
0.083078  2.057733 
0.084589  2.073802 
0.086099  2.089400 
0.087610  2.104490 
0.089120  2.119038 
0.090631  2.133011 
0.092141  2.146382 
0.093652  2.159127 
0.095162  2.171227 
0.096673  2.182665 
0.098183  2.193431 
0.099694  2.203515 
0.101204  2.212916 
0.102715  2.221631 
0.104225  2.229665 
0.105736  2.237024 
0.107246  2.243718 
0.108757  2.249760 
0.110268  2.255166 
0.111778  2.259954 
0.113289  2.264147 
0.114799  2.267767 
0.116310  2.270843 
0.117820  2.273404 
0.119331  2.275483 
0.120841  2.277114 
0.122352  2.278335 
0.123862  2.279186 
0.125373  2.279709 
0.126883  2.279948 
0.128394  2.279949 
0.129904  2.279760 
0.131415  2.279428 
0.132925  2.279003 
0.134436  2.278532 
0.135946  2.278064 
0.137457  2.277645 
0.138967  2.277321 
0.140478  2.277135 
0.141988  2.277126 
0.143499  2.277330 
0.145009  2.277776 
0.146520  2.278488 
0.148030  2.279466 
0.149541  2.280640 
0.151051  2.281423 


0.000000  1.485272 
0.001510  1.485307 
0.003021  1.485422 
0.004531  1.485640 
0.006042  1.486001 
0.007553  1.486557 
0.009063  1.487367 
0.010574  1.488497 
0.012084  1.490016 
0.013595  1.491992 
0.015105  1.494488 
0.016616  1.497564 
0.018126  1.501274 
0.019637  1.505664 
0.021147  1.510770 
0.022658  1.516622 
0.024168  1.523242 
0.025679  1.530643 
0.027189  1.538831 
0.028700  1.547806 
0.030210  1.557561 
0.031721  1.568085 
0.033231  1.579362 
0.034742  1.591372 
0.036252  1.604093 
0.037763  1.617500 
0.039273  1.631566 
0.040784  1.646263 
0.042294  1.661563 
0.043805  1.677435 
0.045315  1.693850 
0.046826  1.710777 
0.048336  1.728186 
0.049847  1.746048 
0.051358  1.764332 
0.052868  1.783011 
0.054379  1.802055 
0.055889  1.821436 
0.057399  1.841128 
0.058910  1.861104 
0.060421  1.881336 
0.061931  1.901799 
0.063442  1.922467 
0.064952  1.943313 
0.066463  1.964312 
0.067973  1.985438 
0.069484  2.006662 
0.070994  2.027958 
0.072505  2.049295 
0.074015  2.070643 
0.075526  2.091969 
0.077036  2.113239 
0.078547  2.134414 
0.080057  2.155454 
0.081568  2.176311 
0.083078  2.196936 
0.084589  2.217269 
0.086099  2.237246 
0.087610  2.256788 
0.089120  2.275804 
0.090631  2.294186 
0.092141  2.311800 
0.093652  2.328485 
0.095162  2.344044 
0.096673  2.358246 
0.098183  2.370830 
0.099694  2.381541 
0.101204  2.390173 
0.102715  2.396640 
0.104225  2.401003 
0.105736  2.403461 
0.107246  2.404286 
0.108757  2.403767 
0.110268  2.402161 
0.111778  2.399683 
0.113289  2.396503 
0.114799  2.392755 
0.116310  2.388543 
0.117820  2.383954 
0.119331  2.379056 
0.120841  2.373909 
0.122352  2.368568 
0.123862  2.363080 
0.125373  2.357490 
0.126883  2.351843 
0.128394  2.346179 
0.129904  2.340539 
0.131415  2.334963 
0.132925  2.329489 
0.134436  2.324155 
0.135946  2.318996 
0.137457  2.314047 
0.138967  2.309338 
0.140478  2.304900 
0.141988  2.300758 
0.143499  2.296936 
0.145009  2.293456 
0.146520  2.290339 
0.148030  2.287618 
0.149541  2.285388 
0.151051  2.284251 


0.000000  1.977739 
0.001510  1.978274 
0.003021  1.979877 
0.004531  1.982541 
0.006042  1.986254 
0.007553  1.990997 
0.009063  1.996750 
0.010574  2.003484 
0.012084  2.011170 
0.013595  2.019770 
0.015105  2.029244 
0.016616  2.039549 
0.018126  2.050637 
0.019637  2.062454 
0.021147  2.074947 
0.022658  2.088055 
0.024168  2.101717 
0.025679  2.115867 
0.027189  2.130438 
0.028700  2.145359 
0.030210  2.160557 
0.031721  2.175958 
0.033231  2.191485 
0.034742  2.207064 
0.036252  2.222619 
0.037763  2.238077 
0.039273  2.253369 
0.040784  2.268430 
0.042294  2.283202 
0.043805  2.297635 
0.045315  2.311687 
0.046826  2.325328 
0.048336  2.338538 
0.049847  2.351307 
0.051358  2.363635 
0.052868  2.375532 
0.054379  2.387014 
0.055889  2.398105 
0.057399  2.408831 
0.058910  2.419221 
0.060421  2.429305 
0.061931  2.439115 
0.063442  2.448678 
0.064952  2.458022 
0.066463  2.467172 
0.067973  2.476150 
0.069484  2.484973 
0.070994  2.493658 
0.072505  2.502214 
0.074015  2.510645 
0.075526  2.518908 
0.077036  2.523818 
0.078547  2.522593 
0.080057  2.521101 
0.081568  2.519512 
0.083078  2.517868 
0.084589  2.516206 
0.086099  2.514565 
0.087610  2.512993 
0.089120  2.511545 
0.090631  2.510295 
0.092141  2.509335 
0.093652  2.508786 
0.095162  2.508800 
0.096673  2.509567 
0.098183  2.511302 
0.099694  2.514217 
0.101204  2.518475 
0.102715  2.524123 
0.104225  2.531062 
0.105736  2.539062 
0.107246  2.547819 
0.108757  2.557026 
0.110268  2.566409 
0.111778  2.575745 
0.113289  2.584866 
0.114799  2.593647 
0.116310  2.601999 
0.117820  2.609865 
0.119331  2.617210 
0.120841  2.624016 
0.122352  2.630280 
0.123862  2.636011 
0.125373  2.641224 
0.126883  2.645942 
0.128394  2.650192 
0.129904  2.654005 
0.131415  2.657413 
0.132925  2.660448 
0.134436  2.663144 
0.135946  2.665532 
0.137457  2.667644 
0.138967  2.669508 
0.140478  2.671153 
0.141988  2.672604 
0.143499  2.673883 
0.145009  2.675013 
0.146520  2.676009 
0.148030  2.676887 
0.149541  2.677644 
0.151051  2.678105 


0.000000  2.022273 
0.001510  2.023193 
0.003021  2.025942 
0.004531  2.030485 
0.006042  2.036765 
0.007553  2.044705 
0.009063  2.054215 
0.010574  2.065191 
0.012084  2.077519 
0.013595  2.091080 
0.015105  2.105751 
0.016616  2.121407 
0.018126  2.137925 
0.019637  2.155178 
0.021147  2.173047 
0.022658  2.191409 
0.024168  2.210146 
0.025679  2.229142 
0.027189  2.248283 
0.028700  2.267456 
0.030210  2.286549 
0.031721  2.305453 
0.033231  2.324060 
0.034742  2.342263 
0.036252  2.359959 
0.037763  2.377048 
0.039273  2.393434 
0.040784  2.409029 
0.042294  2.423752 
0.043805  2.437533 
0.045315  2.450316 
0.046826  2.462058 
0.048336  2.472734 
0.049847  2.482334 
0.051358  2.490869 
0.052868  2.498362 
0.054379  2.504854 
0.055889  2.510397 
0.057399  2.515049 
0.058910  2.518879 
0.060421  2.521955 
0.061931  2.524349 
0.063442  2.526130 
0.064952  2.527364 
0.066463  2.528114 
0.067973  2.528439 
0.069484  2.528392 
0.070994  2.528022 
0.072505  2.527377 
0.074015  2.526501 
0.075526  2.525483 
0.077036  2.527543 
0.078547  2.535494 
0.080057  2.543499 
0.081568  2.551412 
0.083078  2.559214 
0.084589  2.566894 
0.086099  2.574437 
0.087610  2.581831 
0.089120  2.589058 
0.090631  2.596103 
0.092141  2.602947 
0.093652  2.609572 
0.095162  2.615958 
0.096673  2.622089 
0.098183  2.627946 
0.099694  2.633515 
0.101204  2.638779 
0.102715  2.643729 
0.104225  2.648355 
0.105736  2.652650 
0.107246  2.656612 
0.108757  2.660240 
0.110268  2.663539 
0.111778  2.666513 
0.113289  2.669173 
0.114799  2.671531 
0.116310  2.673600 
0.117820  2.675396 
0.119331  2.676937 
0.120841  2.678241 
0.122352  2.679328 
0.123862  2.680216 
0.125373  2.680926 
0.126883  2.681474 
0.128394  2.681880 
0.129904  2.682160 
0.131415  2.682328 
0.132925  2.682400 
0.134436  2.682387 
0.135946  2.682301 
0.137457  2.682149 
0.138967  2.681939 
0.140478  2.681677 
0.141988  2.681366 
0.143499  2.681009 
0.145009  2.680605 
0.146520  2.680155 
0.148030  2.679658 
0.149541  2.679125 
0.151051  2.678739 


0.000000  2.584991 
0.001510  2.585137 
0.003021  2.585571 
0.004531  2.586287 
0.006042  2.587276 
0.007553  2.588522 
0.009063  2.590010 
0.010574  2.591722 
0.012084  2.593639 
0.013595  2.595743 
0.015105  2.598019 
0.016616  2.600456 
0.018126  2.603045 
0.019637  2.605788 
0.021147  2.608690 
0.022658  2.611766 
0.024168  2.615038 
0.025679  2.618538 
0.027189  2.622304 
0.028700  2.626381 
0.030210  2.630821 
0.031721  2.635680 
0.033231  2.641015 
0.034742  2.646886 
0.036252  2.653351 
0.037763  2.660468 
0.039273  2.668286 
0.040784  2.676851 
0.042294  2.686199 
0.043805  2.696355 
0.045315  2.707335 
0.046826  2.719141 
0.048336  2.731763 
0.049847  2.745179 
0.051358  2.759356 
0.052868  2.774252 
0.054379  2.789816 
0.055889  2.805993 
0.057399  2.822722 
0.058910  2.839943 
0.060421  2.857594 
0.061931  2.875615 
0.063442  2.893949 
0.064952  2.912543 
0.066463  2.931349 
0.067973  2.950321 
0.069484  2.969421 
0.070994  2.988616 
0.072505  3.007875 
0.074015  3.027175 
0.075526  3.046497 
0.077036  3.065825 
0.078547  3.085147 
0.080057  3.104457 
0.081568  3.123750 
0.083078  3.143023 
0.084589  3.162277 
0.086099  3.181512 
0.087610  3.200731 
0.089120  3.219936 
0.090631  3.239130 
0.092141  3.258313 
0.093652  3.277486 
0.095162  3.296644 
0.096673  3.315782 
0.098183  3.334891 
0.099694  3.353956 
0.101204  3.372893 
0.102715  3.383194 
0.104225  3.391922 
0.105736  3.400492 
0.107246  3.408909 
0.108757  3.417177 
0.110268  3.425297 
0.111778  3.433268 
0.113289  3.441091 
0.114799  3.448767 
0.116310  3.456298 
0.117820  3.463688 
0.119331  3.470945 
0.120841  3.478078 
0.122352  3.485100 
0.123862  3.492025 
0.125373  3.498868 
0.126883  3.505647 
0.128394  3.512376 
0.129904  3.519073 
0.131415  3.525750 
0.132925  3.532420 
0.134436  3.539095 
0.135946  3.545783 
0.137457  3.552489 
0.138967  3.559216 
0.140478  3.565964 
0.141988  3.572730 
0.143499  3.579507 
0.145009  3.586283 
0.146520  3.593044 
0.148030  3.599769 
0.149541  3.606430 
0.151051  3.612954 


0.000000  3.099154 
0.001510  3.098710 
0.003021  3.097389 
0.004531  3.095224 
0.006042  3.092262 
0.007553  3.088570 
0.009063  3.084224 
0.010574  3.079304 
0.012084  3.073899 
0.013595  3.068094 
0.015105  3.061977 
0.016616  3.055631 
0.018126  3.049140 
0.019637  3.042583 
0.021147  3.036036 
0.022658  3.029574 
0.024168  3.023268 
0.025679  3.017191 
0.027189  3.011410 
0.028700  3.005997 
0.030210  3.001018 
0.031721  2.996543 
0.033231  2.992639 
0.034742  2.989374 
0.036252  2.986813 
0.037763  2.985021 
0.039273  2.984059 
0.040784  2.983981 
0.042294  2.984838 
0.043805  2.986666 
0.045315  2.989496 
0.046826  2.993340 
0.048336  2.998197 
0.049847  3.004051 
0.051358  3.010868 
0.052868  3.018600 
0.054379  3.027185 
0.055889  3.036551 
0.057399  3.046618 
0.058910  3.057300 
0.060421  3.068509 
0.061931  3.080160 
0.063442  3.092168 
0.064952  3.104452 
0.066463  3.116939 
0.067973  3.129560 
0.069484  3.142253 
0.070994  3.154962 
0.072505  3.167638 
0.074015  3.180241 
0.075526  3.192732 
0.077036  3.205081 
0.078547  3.217262 
0.080057  3.229256 
0.081568  3.241047 
0.083078  3.252621 
0.084589  3.263971 
0.086099  3.275092 
0.087610  3.285983 
0.089120  3.296643 
0.090631  3.307077 
0.092141  3.317289 
0.093652  3.327286 
0.095162  3.337075 
0.096673  3.346666 
0.098183  3.356068 
0.099694  3.365291 
0.101204  3.374409 
0.102715  3.391917 
0.104225  3.410727 
0.105736  3.429397 
0.107246  3.447882 
0.108757  3.466134 
0.110268  3.484097 
0.111778  3.501706 
0.113289  3.518890 
0.114799  3.535567 
0.116310  3.551645 
0.117820  3.567024 
0.119331  3.581593 
0.120841  3.595234 
0.122352  3.607824 
0.123862  3.619235 
0.125373  3.629346 
0.126883  3.638050 
0.128394  3.645260 
0.129904  3.650926 
0.131415  3.655036 
0.132925  3.657625 
0.134436  3.658769 
0.135946  3.658578 
0.137457  3.657188 
0.138967  3.654746 
0.140478  3.651400 
0.141988  3.647293 
0.143499  3.642555 
0.145009  3.637305 
0.146520  3.631643 
0.148030  3.625657 
0.149541  3.619420 
0.151051  3.613034 


0.000000  3.120022 
0.001510  3.119721 
0.003021  3.118853 
0.004531  3.117518 
0.006042  3.115863 
0.007553  3.114063 
0.009063  3.112308 
0.010574  3.110778 
0.012084  3.109648 
0.013595  3.109070 
0.015105  3.109183 
0.016616  3.110103 
0.018126  3.111930 
0.019637  3.114745 
0.021147  3.118611 
0.022658  3.123577 
0.024168  3.129675 
0.025679  3.136924 
0.027189  3.145328 
0.028700  3.154882 
0.030210  3.165571 
0.031721  3.177371 
0.033231  3.190251 
0.034742  3.204176 
0.036252  3.219106 
0.037763  3.235000 
0.039273  3.251813 
0.040784  3.269501 
0.042294  3.288020 
0.043805  3.307326 
0.045315  3.327374 
0.046826  3.348123 
0.048336  3.369532 
0.049847  3.391559 
0.051358  3.414168 
0.052868  3.437319 
0.054379  3.460977 
0.055889  3.485106 
0.057399  3.507801 
0.058910  3.514432 
0.060421  3.520821 
0.061931  3.526972 
0.063442  3.532869 
0.064952  3.538496 
0.066463  3.543840 
0.067973  3.548888 
0.069484  3.553629 
0.070994  3.558055 
0.072505  3.562159 
0.074015  3.565938 
0.075526  3.569392 
0.077036  3.572524 
0.078547  3.575339 
0.080057  3.577849 
0.081568  3.580068 
0.083078  3.582016 
0.084589  3.583716 
0.086099  3.585196 
0.087610  3.586490 
0.089120  3.587634 
0.090631  3.588671 
0.092141  3.589646 
0.093652  3.590610 
0.095162  3.591617 
0.096673  3.592722 
0.098183  3.593986 
0.099694  3.595470 
0.101204  3.597235 
0.102715  3.599346 
0.104225  3.601864 
0.105736  3.604850 
0.107246  3.608363 
0.108757  3.612457 
0.110268  3.617181 
0.111778  3.622576 
0.113289  3.628676 
0.114799  3.635504 
0.116310  3.643070 
0.117820  3.651375 
0.119331  3.660404 
0.120841  3.670133 
0.122352  3.680522 
0.123862  3.691524 
0.125373  3.703081 
0.126883  3.715127 
0.128394  3.727590 
0.129904  3.740390 
0.131415  3.753444 
0.132925  3.766663 
0.134436  3.779955 
0.135946  3.793226 
0.137457  3.806380 
0.138967  3.819320 
0.140478  3.831946 
0.141988  3.844162 
0.143499  3.855868 
0.145009  3.866968 
0.146520  3.877368 
0.148030  3.886981 
0.149541  3.895725 
0.151051  3.903234 


0.000000  3.288319 
0.001510  3.288595 
0.003021  3.289422 
0.004531  3.290784 
0.006042  3.292665 
0.007553  3.295039 
0.009063  3.297881 
0.010574  3.301162 
0.012084  3.304857 
0.013595  3.308939 
0.015105  3.313386 
0.016616  3.318176 
0.018126  3.323288 
0.019637  3.328704 
0.021147  3.334403 
0.022658  3.340370 
0.024168  3.346585 
0.025679  3.353032 
0.027189  3.359691 
0.028700  3.366546 
0.030210  3.373577 
0.031721  3.380766 
0.033231  3.388094 
0.034742  3.395541 
0.036252  3.403087 
0.037763  3.410713 
0.039273  3.418399 
0.040784  3.426123 
0.042294  3.433866 
0.043805  3.441608 
0.045315  3.449327 
0.046826  3.457003 
0.048336  3.464616 
0.049847  3.472145 
0.051358  3.479569 
0.052868  3.486870 
0.054379  3.494027 
0.055889  3.501021 
0.057399  3.509702 
0.058910  3.534648 
0.060421  3.559987 
0.061931  3.585663 
0.063442  3.611644 
0.064952  3.637897 
0.066463  3.664389 
0.067973  3.691087 
0.069484  3.717958 
0.070994  3.744966 
0.072505  3.772077 
0.074015  3.799251 
0.075526  3.826449 
0.077036  3.853624 
0.078547  3.880718 
0.080057  3.907653 
0.081568  3.934283 
0.083078  3.960199 
0.084589  3.983341 
0.086099  3.997889 
0.087610  4.007014 
0.089120  4.014405 
0.090631  4.020673 
0.092141  4.025908 
0.093652  4.030099 
0.095162  4.033213 
0.096673  4.035223 
0.098183  4.036111 
0.099694  4.035882 
0.101204  4.034564 
0.102715  4.032208 
0.104225  4.028886 
0.105736  4.024690 
0.107246  4.019726 
0.108757  4.014110 
0.110268  4.007962 
0.111778  4.001408 
0.113289  3.994575 
0.114799  3.987588 
0.116310  3.980575 
0.117820  3.973661 
0.119331  3.966972 
0.120841  3.960629 
0.122352  3.954751 
0.123862  3.949447 
0.125373  3.944810 
0.126883  3.940912 
0.128394  3.937791 
0.129904  3.935443 
0.131415  3.933816 
0.132925  3.932807 
0.134436  3.932265 
0.135946  3.932004 
0.137457  3.931812 
0.138967  3.931472 
0.140478  3.930770 
0.141988  3.929515 
0.143499  3.927539 
0.145009  3.924714 
0.146520  3.920943 
0.148030  3.916169 
0.149541  3.910371 
0.151051  3.903850 


0.000000  3.311184 
0.001510  3.312054 
0.003021  3.314634 
0.004531  3.318831 
0.006042  3.324512 
0.007553  3.331519 
0.009063  3.339687 
0.010574  3.348857 
0.012084  3.358884 
0.013595  3.369640 
0.015105  3.381014 
0.016616  3.392911 
0.018126  3.405250 
0.019637  3.417964 
0.021147  3.430994 
0.022658  3.444293 
0.024168  3.457819 
0.025679  3.471538 
0.027189  3.485420 
0.028700  3.499440 
0.030210  3.513576 
0.031721  3.527809 
0.033231  3.542123 
0.034742  3.556504 
0.036252  3.570939 
0.037763  3.585416 
0.039273  3.599924 
0.040784  3.614455 
0.042294  3.628998 
0.043805  3.643545 
0.045315  3.658087 
0.046826  3.672615 
0.048336  3.687120 
0.049847  3.701594 
0.051358  3.716027 
0.052868  3.730408 
0.054379  3.744729 
0.055889  3.758977 
0.057399  3.773142 
0.058910  3.787211 
0.060421  3.801172 
0.061931  3.815009 
0.063442  3.828709 
0.064952  3.842254 
0.066463  3.855627 
0.067973  3.868810 
0.069484  3.881781 
0.070994  3.894519 
0.072505  3.907000 
0.074015  3.919199 
0.075526  3.931090 
0.077036  3.942648 
0.078547  3.953851 
0.080057  3.964695 
0.081568  3.975234 
0.083078  3.985777 
0.084589  3.998271 
0.086099  4.018409 
0.087610  4.042880 
0.089120  4.067833 
0.090631  4.092469 
0.092141  4.116478 
0.093652  4.139607 
0.095162  4.161568 
0.096673  4.182013 
0.098183  4.200537 
0.099694  4.216740 
0.101204  4.230362 
0.102715  4.241415 
0.104225  4.250202 
0.105736  4.257184 
0.107246  4.262820 
0.108757  4.267479 
0.110268  4.271419 
0.111778  4.274807 
0.113289  4.277746 
0.114799  4.280297 
0.116310  4.282494 
0.117820  4.284358 
0.119331  4.285904 
0.120841  4.287143 
0.122352  4.288091 
0.123862  4.288767 
0.125373  4.289195 
0.126883  4.289407 
0.128394  4.289443 
0.129904  4.289352 
0.131415  4.289188 
0.132925  4.289016 
0.134436  4.288904 
0.135946  4.288926 
0.137457  4.289156 
0.138967  4.289669 
0.140478  4.290529 
0.141988  4.291795 
0.143499  4.293509 
0.145009  4.295696 
0.146520  4.298364 
0.148030  4.301501 
0.149541  4.305078 
0.151051  4.308942 


0.000000  3.635178 
0.001510  3.635803 
0.003021  3.637670 
0.004531  3.640761 
0.006042  3.645043 
0.007553  3.650472 
0.009063  3.656999 
0.010574  3.664564 
0.012084  3.673106 
0.013595  3.682558 
0.015105  3.692856 
0.016616  3.703934 
0.018126  3.715727 
0.019637  3.728173 
0.021147  3.741214 
0.022658  3.754792 
0.024168  3.768855 
0.025679  3.783352 
0.027189  3.798237 
0.028700  3.813464 
0.030210  3.828990 
0.031721  3.844777 
0.033231  3.860786 
0.034742  3.876980 
0.036252  3.893324 
0.037763  3.909784 
0.039273  3.926328 
0.040784  3.942924 
0.042294  3.959538 
0.043805  3.976141 
0.045315  3.992701 
0.046826  4.009187 
0.048336  4.025567 
0.049847  4.041810 
0.051358  4.057885 
0.052868  4.073760 
0.054379  4.089402 
0.055889  4.104780 
0.057399  4.119860 
0.058910  4.134612 
0.060421  4.149003 
0.061931  4.163003 
0.063442  4.176582 
0.064952  4.189713 
0.066463  4.202372 
0.067973  4.214536 
0.069484  4.226188 
0.070994  4.237314 
0.072505  4.247906 
0.074015  4.257961 
0.075526  4.267482 
0.077036  4.276477 
0.078547  4.284960 
0.080057  4.292949 
0.081568  4.300467 
0.083078  4.307537 
0.084589  4.314186 
0.086099  4.320440 
0.087610  4.326321 
0.089120  4.331817 
0.090631  4.334240 
0.092141  4.332495 
0.093652  4.331748 
0.095162  4.332383 
0.096673  4.334765 
0.098183  4.339301 
0.099694  4.346367 
0.101204  4.356167 
0.102715  4.368010 
0.104225  4.372114 
0.105736  4.374774 
0.107246  4.377122 
0.108757  4.379173 
0.110268  4.380921 
0.111778  4.382354 
0.113289  4.383461 
0.114799  4.384231 
0.116310  4.384652 
0.117820  4.384714 
0.119331  4.384408 
0.120841  4.383728 
0.122352  4.382668 
0.123862  4.381225 
0.125373  4.379400 
