# distance  frequency (bands are separated by blank lines)
# End points of segments: 
#   0.00000000 0.13666560 
0.000000  0.696676 
0.001367  0.698309 
0.002733  0.703181 
0.004100  0.711215 
0.005467  0.722285 
0.006833  0.736228 
0.008200  0.752851 
0.009567  0.771941 
0.010933  0.793276 
0.012300  0.816629 
0.013667  0.841779 
0.015033  0.868510 
0.016400  0.896619 
0.017767  0.925916 
0.019133  0.956222 
0.020500  0.987375 
0.021867  1.019224 
0.023233  1.051629 
0.024600  1.084463 
0.025966  1.117604 
0.027333  1.150938 
0.028700  1.184348 
0.030066  1.217700 
0.031433  1.250794 
0.032800  1.282821 
0.034166  1.299099 
0.035533  1.309567 
0.036900  1.320283 
0.038266  1.331345 
0.039633  1.342756 
0.041000  1.354503 
0.042366  1.366573 
0.043733  1.378949 
0.045100  1.391614 
0.046466  1.404549 
0.047833  1.417727 
0.049200  1.431059 
0.050566  1.442516 
0.051933  1.450421 
0.053300  1.458020 
0.054666  1.465503 
0.056033  1.472904 
0.057399  1.480243 
0.058766  1.487539 
0.060133  1.494813 
0.061499  1.502085 
0.062866  1.509375 
0.064233  1.516704 
0.065600  1.524092 
0.066966  1.531561 
0.068333  1.539129 
0.069699  1.546817 
0.071066  1.554641 
0.072433  1.562620 
0.073799  1.570768 
0.075166  1.579101 
0.076533  1.587630 
0.077899  1.596367 
0.079266  1.605322 
0.080633  1.614501 
0.081999  1.623911 
0.083366  1.633557 
0.084733  1.643440 
0.086099  1.653561 
0.087466  1.663918 
0.088833  1.674510 
0.090199  1.685330 
0.091566  1.696374 
0.092933  1.707632 
0.094299  1.719096 
0.095666  1.730755 
0.097032  1.742596 
0.098399  1.754605 
0.099766  1.766768 
0.101133  1.779068 
0.102499  1.791489 
0.103866  1.804010 
0.105233  1.816614 
0.106599  1.829279 
0.107966  1.841985 
0.109332  1.854709 
0.110699  1.867430 
0.112066  1.880123 
0.113432  1.892765 
0.114799  1.905332 
0.116166  1.917799 
0.117532  1.930143 
0.118899  1.942338 
0.120266  1.954360 
0.121632  1.966185 
0.122999  1.977787 
0.124366  1.989142 
0.125732  2.000227 
0.127099  2.011019 
0.128466  2.021492 
0.129832  2.031625 
0.131199  2.041391 
0.132566  2.050764 
0.133932  2.059705 
0.135299  2.068111 
0.136666  2.074255 


0.000000  1.182785 
0.001367  1.182930 
0.002733  1.183367 
0.004100  1.184101 
0.005467  1.185141 
0.006833  1.186496 
0.008200  1.188181 
0.009567  1.190211 
0.010933  1.192601 
0.012300  1.195368 
0.013667  1.198529 
0.015033  1.202100 
0.016400  1.206096 
0.017767  1.210529 
0.019133  1.215412 
0.020500  1.220751 
0.021867  1.226555 
0.023233  1.232827 
0.024600  1.239570 
0.025966  1.246782 
0.027333  1.254462 
0.028700  1.262607 
0.030066  1.271220 
0.031433  1.280328 
0.032800  1.290431 
0.034166  1.315303 
0.035533  1.341160 
0.036900  1.356671 
0.038266  1.367293 
0.039633  1.376673 
0.041000  1.385592 
0.042366  1.394254 
0.043733  1.402730 
0.045100  1.411049 
0.046466  1.419227 
0.047833  1.427285 
0.049200  1.435300 
0.050566  1.445295 
0.051933  1.458940 
0.053300  1.472986 
0.054666  1.487239 
0.056033  1.501667 
0.057399  1.516251 
0.058766  1.530976 
0.060133  1.545825 
0.061499  1.560786 
0.062866  1.575844 
0.064233  1.590985 
0.065600  1.606195 
0.066966  1.621462 
0.068333  1.636770 
0.069699  1.652107 
0.071066  1.667460 
0.072433  1.682813 
0.073799  1.698154 
0.075166  1.713469 
0.076533  1.728743 
0.077899  1.743962 
0.079266  1.759112 
0.080633  1.774178 
0.081999  1.789146 
0.083366  1.804002 
0.084733  1.818731 
0.086099  1.833318 
0.087466  1.847748 
0.088833  1.862008 
0.090199  1.876082 
0.091566  1.889957 
0.092933  1.903618 
0.094299  1.917051 
0.095666  1.930244 
0.097032  1.943182 
0.098399  1.955852 
0.099766  1.968243 
0.101133  1.980342 
0.102499  1.992137 
0.103866  2.003617 
0.105233  2.014769 
0.106599  2.025582 
0.107966  2.036044 
0.109332  2.046140 
0.110699  2.055856 
0.112066  2.065171 
0.113432  2.074061 
0.114799  2.082491 
0.116166  2.090408 
0.117532  2.097737 
0.118899  2.104360 
0.120266  2.110096 
0.121632  2.114686 
0.122999  2.117810 
0.124366  2.119199 
0.125732  2.118793 
0.127099  2.116779 
0.128466  2.113453 
0.129832  2.109086 
0.131199  2.103880 
0.132566  2.097974 
0.133932  2.091473 
0.135299  2.084517 
0.136666  2.078855 


0.000000  1.206104 
0.001367  1.206378 
0.002733  1.207201 
0.004100  1.208568 
0.005467  1.210475 
0.006833  1.212915 
0.008200  1.215878 
0.009567  1.219353 
0.010933  1.223327 
0.012300  1.227784 
0.013667  1.232705 
0.015033  1.238072 
0.016400  1.243863 
0.017767  1.250054 
0.019133  1.256621 
0.020500  1.263538 
0.021867  1.270778 
0.023233  1.278315 
0.024600  1.286122 
0.025966  1.294174 
0.027333  1.302452 
0.028700  1.310941 
0.030066  1.319648 
0.031433  1.328626 
0.032800  1.338071 
0.034166  1.348780 
0.035533  1.364499 
0.036900  1.390399 
0.038266  1.420833 
0.039633  1.452066 
0.041000  1.483246 
0.042366  1.514105 
0.043733  1.544518 
0.045100  1.574409 
0.046466  1.603721 
0.047833  1.632407 
0.049200  1.660429 
0.050566  1.687753 
0.051933  1.714348 
0.053300  1.740189 
0.054666  1.765254 
0.056033  1.789525 
0.057399  1.812987 
0.058766  1.835630 
0.060133  1.857448 
0.061499  1.878439 
0.062866  1.898605 
0.064233  1.917953 
0.065600  1.936492 
0.066966  1.954235 
0.068333  1.971199 
0.069699  1.987400 
0.071066  2.002862 
0.072433  2.017604 
0.073799  2.031652 
0.075166  2.045027 
0.076533  2.057755 
0.077899  2.069858 
0.079266  2.081360 
0.080633  2.092284 
0.081999  2.102651 
0.083366  2.112480 
0.084733  2.121792 
0.086099  2.130603 
0.087466  2.138928 
0.088833  2.146776 
0.090199  2.153115 
0.091566  2.155552 
0.092933  2.157752 
0.094299  2.159770 
0.095666  2.161605 
0.097032  2.163256 
0.098399  2.164719 
0.099766  2.165992 
0.101133  2.167068 
0.102499  2.167944 
0.103866  2.168612 
0.105233  2.169068 
0.106599  2.169306 
0.107966  2.169322 
0.109332  2.169113 
0.110699  2.168678 
0.112066  2.168021 
0.113432  2.167154 
0.114799  2.166096 
0.116166  2.164887 
0.117532  2.163591 
0.118899  2.162314 
0.120266  2.161229 
0.121632  2.160586 
0.122999  2.160699 
0.124366  2.161831 
0.125732  2.164038 
0.127099  2.167134 
0.128466  2.170819 
0.129832  2.174826 
0.131199  2.178955 
0.132566  2.183076 
0.133932  2.187094 
0.135299  2.190908 
0.136666  2.193623 


0.000000  1.660943 
0.001367  1.661391 
0.002733  1.662733 
0.004100  1.664957 
0.005467  1.668045 
0.006833  1.671974 
0.008200  1.676715 
0.009567  1.682230 
0.010933  1.688483 
0.012300  1.695428 
0.013667  1.703020 
0.015033  1.711212 
0.016400  1.719954 
0.017767  1.729195 
0.019133  1.738886 
0.020500  1.748976 
0.021867  1.759415 
0.023233  1.770157 
0.024600  1.781154 
0.025966  1.792360 
0.027333  1.803732 
0.028700  1.815229 
0.030066  1.826811 
0.031433  1.838440 
0.032800  1.850082 
0.034166  1.861703 
0.035533  1.873271 
0.036900  1.884759 
0.038266  1.896140 
0.039633  1.907388 
0.041000  1.918481 
0.042366  1.929399 
0.043733  1.940123 
0.045100  1.950635 
0.046466  1.960922 
0.047833  1.970970 
0.049200  1.980768 
0.050566  1.990306 
0.051933  1.999576 
0.053300  2.008571 
0.054666  2.017287 
0.056033  2.025721 
0.057399  2.033869 
0.058766  2.041732 
0.060133  2.049309 
0.061499  2.056602 
0.062866  2.063614 
0.064233  2.070348 
0.065600  2.076808 
0.066966  2.083000 
0.068333  2.088928 
0.069699  2.094600 
0.071066  2.100021 
0.072433  2.105198 
0.073799  2.110138 
0.075166  2.114849 
0.076533  2.119336 
0.077899  2.123607 
0.079266  2.127668 
0.080633  2.131525 
0.081999  2.135183 
0.083366  2.138649 
0.084733  2.141925 
0.086099  2.145017 
0.087466  2.147929 
0.088833  2.150670 
0.090199  2.154288 
0.091566  2.161190 
0.092933  2.167721 
0.094299  2.173838 
0.095666  2.179550 
0.097032  2.184863 
0.098399  2.189787 
0.099766  2.194330 
0.101133  2.198498 
0.102499  2.202300 
0.103866  2.205741 
0.105233  2.208829 
0.106599  2.211568 
0.107966  2.213966 
0.109332  2.216028 
0.110699  2.217760 
0.112066  2.219166 
0.113432  2.220254 
0.114799  2.221027 
0.116166  2.221491 
0.117532  2.221652 
0.118899  2.221515 
0.120266  2.221084 
0.121632  2.220365 
0.122999  2.219362 
0.124366  2.218082 
0.125732  2.216527 
0.127099  2.214705 
0.128466  2.212620 
0.129832  2.210278 
0.131199  2.207685 
0.132566  2.204853 
0.133932  2.201798 
0.135299  2.198577 
0.136666  2.196063 


0.000000  2.358087 
0.001367  2.357962 
0.002733  2.357599 
0.004100  2.357036 
0.005467  2.356321 
0.006833  2.355513 
0.008200  2.354664 
0.009567  2.353824 
0.010933  2.353035 
0.012300  2.352332 
0.013667  2.351745 
0.015033  2.351300 
0.016400  2.351019 
0.017767  2.350921 
0.019133  2.351025 
0.020500  2.351348 
0.021867  2.351908 
0.023233  2.352720 
0.024600  2.353803 
0.025966  2.355174 
0.027333  2.356849 
0.028700  2.358849 
0.030066  2.361192 
0.031433  2.363896 
0.032800  2.366981 
0.034166  2.370468 
0.035533  2.374375 
0.036900  2.378724 
0.038266  2.383533 
0.039633  2.388823 
0.041000  2.394613 
0.042366  2.400920 
0.043733  2.407762 
0.045100  2.415156 
0.046466  2.423116 
0.047833  2.431657 
0.049200  2.440789 
0.050566  2.450523 
0.051933  2.460866 
0.053300  2.471821 
0.054666  2.483392 
0.056033  2.495577 
0.057399  2.508370 
0.058766  2.521741 
0.060133  2.522198 
0.061499  2.522197 
0.062866  2.522442 
0.064233  2.522946 
0.065600  2.523723 
0.066966  2.524780 
0.068333  2.526126 
0.069699  2.527767 
0.071066  2.529707 
0.072433  2.531950 
0.073799  2.534497 
0.075166  2.537349 
0.076533  2.540504 
0.077899  2.543961 
0.079266  2.547714 
0.080633  2.551761 
0.081999  2.556094 
0.083366  2.560707 
0.084733  2.565592 
0.086099  2.570741 
0.087466  2.576144 
0.088833  2.581789 
0.090199  2.587667 
0.091566  2.593764 
0.092933  2.600069 
0.094299  2.606568 
0.095666  2.613248 
0.097032  2.620094 
0.098399  2.627092 
0.099766  2.634228 
0.101133  2.641485 
0.102499  2.648849 
0.103866  2.656305 
0.105233  2.663837 
0.106599  2.671430 
0.107966  2.679069 
0.109332  2.686740 
0.110699  2.694427 
0.112066  2.702117 
0.113432  2.709796 
0.114799  2.717452 
0.116166  2.725071 
0.117532  2.732643 
0.118899  2.740156 
0.120266  2.747601 
0.121632  2.754968 
0.122999  2.762248 
0.124366  2.769435 
0.125732  2.776522 
0.127099  2.783503 
0.128466  2.790374 
0.129832  2.797129 
0.131199  2.803767 
0.132566  2.810284 
0.133932  2.816678 
0.135299  2.822948 
0.136666  2.828999 


0.000000  2.407652 
0.001367  2.408008 
0.002733  2.409061 
0.004100  2.410776 
0.005467  2.413104 
0.006833  2.415989 
0.008200  2.419379 
0.009567  2.423227 
0.010933  2.427493 
0.012300  2.432146 
0.013667  2.437161 
0.015033  2.442517 
0.016400  2.448198 
0.017767  2.454193 
0.019133  2.460491 
0.020500  2.467085 
0.021867  2.473968 
0.023233  2.481136 
0.024600  2.488585 
0.025966  2.496311 
0.027333  2.504312 
0.028700  2.512582 
0.030066  2.521116 
0.031433  2.529881 
0.032800  2.537746 
0.034166  2.538567 
0.035533  2.538600 
0.036900  2.538358 
0.038266  2.537878 
0.039633  2.537185 
0.041000  2.536306 
0.042366  2.535271 
0.043733  2.534113 
0.045100  2.532863 
0.046466  2.531558 
0.047833  2.530229 
0.049200  2.528910 
0.050566  2.527634 
0.051933  2.526430 
0.053300  2.525327 
0.054666  2.524353 
0.056033  2.523531 
0.057399  2.522885 
0.058766  2.522459 
0.060133  2.535749 
0.061499  2.550305 
0.062866  2.565414 
0.064233  2.581056 
0.065600  2.597202 
0.066966  2.613826 
0.068333  2.630895 
0.069699  2.648376 
0.071066  2.666235 
0.072433  2.684434 
0.073799  2.702939 
0.075166  2.721711 
0.076533  2.740714 
0.077899  2.759912 
0.079266  2.779268 
0.080633  2.798748 
0.081999  2.818315 
0.083366  2.837933 
0.084733  2.857562 
0.086099  2.877146 
0.087466  2.896584 
0.088833  2.915545 
0.090199  2.931724 
0.091566  2.938175 
0.092933  2.940227 
0.094299  2.941203 
0.095666  2.941555 
0.097032  2.941408 
0.098399  2.940821 
0.099766  2.939834 
0.101133  2.938481 
0.102499  2.936790 
0.103866  2.934786 
0.105233  2.932492 
0.106599  2.929930 
0.107966  2.927118 
0.109332  2.924075 
0.110699  2.920815 
0.112066  2.917353 
0.113432  2.913701 
0.114799  2.909871 
0.116166  2.905872 
0.117532  2.901713 
0.118899  2.897401 
0.120266  2.892941 
0.121632  2.888340 
0.122999  2.883601 
0.124366  2.878728 
0.125732  2.873724 
0.127099  2.868589 
0.128466  2.863327 
0.129832  2.857937 
0.131199  2.852421 
0.132566  2.846779 
0.133932  2.841010 
0.135299  2.835116 
0.136666  2.829191 


0.000000  2.506380 
0.001367  2.506492 
0.002733  2.506826 
0.004100  2.507380 
0.005467  2.508146 
0.006833  2.509116 
0.008200  2.510279 
0.009567  2.511622 
0.010933  2.513128 
0.012300  2.514778 
0.013667  2.516552 
0.015033  2.518426 
0.016400  2.520373 
0.017767  2.522367 
0.019133  2.524377 
0.020500  2.526371 
0.021867  2.528316 
0.023233  2.530181 
0.024600  2.531931 
0.025966  2.533536 
0.027333  2.534966 
0.028700  2.536197 
0.030066  2.537212 
0.031433  2.538022 
0.032800  2.539747 
0.034166  2.548523 
0.035533  2.558093 
0.036900  2.567949 
0.038266  2.578066 
0.039633  2.588432 
0.041000  2.599039 
0.042366  2.609877 
0.043733  2.620936 
0.045100  2.632203 
0.046466  2.643663 
0.047833  2.655302 
0.049200  2.667100 
0.050566  2.679037 
0.051933  2.691090 
0.053300  2.703233 
0.054666  2.715440 
0.056033  2.727680 
0.057399  2.739922 
0.058766  2.752131 
0.060133  2.764271 
0.061499  2.776304 
0.062866  2.788191 
0.064233  2.799890 
0.065600  2.811359 
0.066966  2.822557 
0.068333  2.833439 
0.069699  2.843966 
0.071066  2.854094 
0.072433  2.863785 
0.073799  2.873001 
0.075166  2.881710 
0.076533  2.889881 
0.077899  2.897490 
0.079266  2.904515 
0.080633  2.910945 
0.081999  2.916771 
0.083366  2.921997 
0.084733  2.926636 
0.086099  2.930722 
0.087466  2.934343 
0.088833  2.937823 
0.090199  2.943465 
0.091566  2.958216 
0.092933  2.976755 
0.094299  2.995768 
0.095666  3.014812 
0.097032  3.033779 
0.098399  3.052622 
0.099766  3.071316 
0.101133  3.089842 
0.102499  3.108187 
0.103866  3.126340 
0.105233  3.144290 
0.106599  3.162027 
0.107966  3.179539 
0.109332  3.196780 
0.110699  3.210844 
0.112066  3.219550 
0.113432  3.228131 
0.114799  3.236692 
0.116166  3.245242 
0.117532  3.253780 
0.118899  3.262304 
0.120266  3.270810 
0.121632  3.279291 
0.122999  3.287738 
0.124366  3.296141 
0.125732  3.304488 
0.127099  3.312764 
0.128466  3.320951 
0.129832  3.329032 
0.131199  3.336987 
0.132566  3.344792 
0.133932  3.352424 
0.135299  3.359855 
0.136666  3.366690 


0.000000  2.861474 
0.001367  2.861115 
0.002733  2.860052 
0.004100  2.858320 
0.005467  2.855976 
0.006833  2.853090 
0.008200  2.849743 
0.009567  2.846020 
0.010933  2.842005 
0.012300  2.837782 
0.013667  2.833428 
0.015033  2.829020 
0.016400  2.824628 
0.017767  2.820318 
0.019133  2.816151 
0.020500  2.812188 
0.021867  2.808482 
0.023233  2.805086 
0.024600  2.802049 
0.025966  2.799414 
0.027333  2.797222 
0.028700  2.795508 
0.030066  2.794302 
0.031433  2.793626 
0.032800  2.793498 
0.034166  2.793926 
0.035533  2.794913 
0.036900  2.796454 
0.038266  2.798538 
0.039633  2.801149 
0.041000  2.804267 
0.042366  2.807868 
0.043733  2.811927 
0.045100  2.816416 
0.046466  2.821308 
0.047833  2.826576 
0.049200  2.832195 
0.050566  2.838140 
0.051933  2.844386 
0.053300  2.850913 
0.054666  2.857700 
0.056033  2.864729 
0.057399  2.871980 
0.058766  2.879439 
0.060133  2.887091 
0.061499  2.894920 
0.062866  2.902913 
0.064233  2.911057 
0.065600  2.919340 
0.066966  2.927750 
0.068333  2.936275 
0.069699  2.944903 
0.071066  2.953623 
0.072433  2.962425 
0.073799  2.971297 
0.075166  2.980229 
0.076533  2.989212 
0.077899  2.998233 
0.079266  3.007285 
0.080633  3.016359 
0.081999  3.025444 
0.083366  3.034533 
0.084733  3.043619 
0.086099  3.052695 
0.087466  3.061754 
0.088833  3.070790 
0.090199  3.079800 
0.091566  3.088780 
0.092933  3.097725 
0.094299  3.106636 
0.095666  3.115509 
0.097032  3.124345 
0.098399  3.133144 
0.099766  3.141908 
0.101133  3.150639 
0.102499  3.159339 
0.103866  3.168011 
0.105233  3.176659 
0.106599  3.185289 
0.107966  3.193909 
0.109332  3.202562 
0.110699  3.214149 
0.112066  3.230850 
0.113432  3.247427 
0.114799  3.263772 
0.116166  3.279870 
0.117532  3.295714 
0.118899  3.311296 
0.120266  3.326610 
0.121632  3.341644 
0.122999  3.356382 
0.124366  3.370787 
0.125732  3.384749 
0.127099  3.397595 
0.128466  3.402504 
0.129832  3.398452 
0.131199  3.393019 
0.132566  3.387058 
0.133932  3.380712 
0.135299  3.374045 
0.136666  3.367463 


0.000000  3.066349 
0.001367  3.066819 
0.002733  3.068216 
0.004100  3.070509 
0.005467  3.073645 
0.006833  3.077563 
0.008200  3.082193 
0.009567  3.087462 
0.010933  3.093301 
0.012300  3.099644 
0.013667  3.106433 
0.015033  3.113614 
0.016400  3.121142 
0.017767  3.128978 
0.019133  3.137088 
0.020500  3.145444 
0.021867  3.154023 
0.023233  3.162806 
0.024600  3.171776 
0.025966  3.180920 
0.027333  3.190229 
0.028700  3.199692 
0.030066  3.209304 
0.031433  3.219057 
0.032800  3.228947 
0.034166  3.238970 
0.035533  3.249120 
0.036900  3.259394 
0.038266  3.269787 
0.039633  3.280294 
0.041000  3.290908 
0.042366  3.301624 
0.043733  3.312434 
0.045100  3.323329 
0.046466  3.334299 
0.047833  3.345326 
0.049200  3.346308 
0.050566  3.344887 
0.051933  3.343550 
0.053300  3.342307 
0.054666  3.341164 
0.056033  3.340132 
0.057399  3.339220 
0.058766  3.338439 
0.060133  3.337801 
0.061499  3.337320 
0.062866  3.337010 
0.064233  3.336884 
0.065600  3.336959 
0.066966  3.337251 
0.068333  3.337775 
0.069699  3.338547 
0.071066  3.339582 
0.072433  3.340892 
0.073799  3.342489 
0.075166  3.344382 
0.076533  3.346575 
0.077899  3.349070 
0.079266  3.351863 
0.080633  3.354946 
0.081999  3.358307 
0.083366  3.361926 
0.084733  3.365781 
0.086099  3.369842 
0.087466  3.374078 
0.088833  3.378452 
0.090199  3.382926 
0.091566  3.387457 
0.092933  3.392002 
0.094299  3.396517 
0.095666  3.400959 
0.097032  3.405282 
0.098399  3.409446 
0.099766  3.413408 
0.101133  3.417130 
0.102499  3.420573 
0.103866  3.423703 
0.105233  3.426488 
0.106599  3.428899 
0.107966  3.430909 
0.109332  3.432495 
0.110699  3.433638 
0.112066  3.434321 
0.113432  3.434530 
0.114799  3.434256 
0.116166  3.433492 
0.117532  3.432237 
0.118899  3.430492 
0.120266  3.428263 
0.121632  3.425562 
0.122999  3.422410 
0.124366  3.418850 
0.125732  3.415003 
0.127099  3.411552 
0.128466  3.415333 
0.129832  3.427383 
0.131199  3.440136 
0.132566  3.452760 
0.133932  3.465126 
0.135299  3.477190 
0.136666  3.488722 


0.000000  3.400257 
0.001367  3.400182 
0.002733  3.399959 
0.004100  3.399589 
0.005467  3.399074 
0.006833  3.398417 
0.008200  3.397623 
0.009567  3.396696 
0.010933  3.395643 
0.012300  3.394470 
0.013667  3.393183 
0.015033  3.391790 
0.016400  3.390299 
0.017767  3.388719 
0.019133  3.387057 
0.020500  3.385323 
0.021867  3.383526 
0.023233  3.381673 
0.024600  3.379774 
0.025966  3.377838 
0.027333  3.375873 
0.028700  3.373887 
0.030066  3.371889 
0.031433  3.369885 
0.032800  3.367884 
0.034166  3.365891 
0.035533  3.363915 
0.036900  3.361961 
0.038266  3.360035 
0.039633  3.358143 
0.041000  3.356291 
0.042366  3.354484 
0.043733  3.352727 
0.045100  3.351026 
0.046466  3.349387 
0.047833  3.347822 
0.049200  3.356428 
0.050566  3.367555 
0.051933  3.378708 
0.053300  3.389871 
0.054666  3.401028 
0.056033  3.412161 
0.057399  3.423252 
0.058766  3.434282 
0.060133  3.445230 
0.061499  3.456078 
0.062866  3.466803 
0.064233  3.477386 
0.065600  3.487806 
0.066966  3.498041 
0.068333  3.508071 
0.069699  3.517875 
0.071066  3.527433 
0.072433  3.536726 
0.073799  3.545734 
0.075166  3.554439 
0.076533  3.562824 
0.077899  3.570871 
0.079266  3.578564 
0.080633  3.585889 
0.081999  3.592831 
0.083366  3.599378 
0.084733  3.605517 
0.086099  3.611237 
0.087466  3.616529 
0.088833  3.621381 
0.090199  3.625787 
0.091566  3.629738 
0.092933  3.633228 
0.094299  3.636249 
0.095666  3.638796 
0.097032  3.640863 
0.098399  3.642447 
0.099766  3.643541 
0.101133  3.644142 
0.102499  3.644247 
0.103866  3.643852 
0.105233  3.642955 
0.106599  3.641553 
0.107966  3.639644 
0.109332  3.637229 
0.110699  3.634306 
0.112066  3.630876 
0.113432  3.626942 
