# distance  frequency (bands are separated by blank lines)
# End points of segments: 
#   0.00000000 0.15587980 
0.000000  -0.004923 
0.001559  0.012215 
0.003118  0.025226 
0.004676  0.038290 
0.006235  0.051626 
0.007794  0.065348 
0.009353  0.079547 
0.010912  0.094297 
0.012470  0.109662 
0.014029  0.125695 
0.015588  0.142434 
0.017147  0.159910 
0.018706  0.178144 
0.020264  0.197146 
0.021823  0.216920 
0.023382  0.237464 
0.024941  0.258768 
0.026500  0.280819 
0.028058  0.303597 
0.029617  0.327081 
0.031176  0.351245 
0.032735  0.376064 
0.034294  0.401506 
0.035852  0.427542 
0.037411  0.454138 
0.038970  0.481260 
0.040529  0.508875 
0.042088  0.536947 
0.043646  0.565438 
0.045205  0.594312 
0.046764  0.623532 
0.048323  0.653060 
0.049882  0.682855 
0.051440  0.712880 
0.052999  0.743095 
0.054558  0.773459 
0.056117  0.803932 
0.057675  0.834474 
0.059234  0.865043 
0.060793  0.895598 
0.062352  0.926098 
0.063911  0.956503 
0.065469  0.986771 
0.067028  1.016864 
0.068587  1.046740 
0.070146  1.076362 
0.071705  1.105692 
0.073263  1.134696 
0.074822  1.163337 
0.076381  1.191586 
0.077940  1.219411 
0.079499  1.246787 
0.081058  1.273689 
0.082616  1.300097 
0.084175  1.325994 
0.085734  1.351365 
0.087293  1.376203 
0.088851  1.400500 
0.090410  1.424254 
0.091969  1.447469 
0.093528  1.470149 
0.095087  1.492304 
0.096645  1.513945 
0.098204  1.535089 
0.099763  1.555753 
0.101322  1.575958 
0.102881  1.595724 
0.104440  1.615074 
0.105998  1.634031 
0.107557  1.652619 
0.109116  1.670860 
0.110675  1.688775 
0.112233  1.706382 
0.113792  1.723699 
0.115351  1.740740 
0.116910  1.757516 
0.118469  1.774035 
0.120027  1.790302 
0.121586  1.806318 
0.123145  1.822082 
0.124704  1.837591 
0.126263  1.852836 
0.127822  1.867808 
0.129380  1.882497 
0.130939  1.896889 
0.132498  1.910971 
0.134057  1.924728 
0.135615  1.938144 
0.137174  1.951206 
0.138733  1.963899 
0.140292  1.976209 
0.141851  1.988123 
0.143409  1.999632 
0.144968  2.010726 
0.146527  2.021397 
0.148086  2.031639 
0.149645  2.041449 
0.151203  2.050818 
0.152762  2.059732 
0.154321  2.068113 
0.155880  2.074255 


0.000000  -0.002323 
0.001559  0.034207 
0.003118  0.068841 
0.004676  0.103330 
0.006235  0.137727 
0.007794  0.172023 
0.009353  0.206203 
0.010912  0.240249 
0.012470  0.274139 
0.014029  0.307857 
0.015588  0.341383 
0.017147  0.374700 
0.018706  0.407791 
0.020264  0.440641 
0.021823  0.473236 
0.023382  0.505563 
0.024941  0.537609 
0.026500  0.569365 
0.028058  0.600821 
0.029617  0.631970 
0.031176  0.662805 
0.032735  0.693321 
0.034294  0.723514 
0.035852  0.753383 
0.037411  0.782927 
0.038970  0.812145 
0.040529  0.841040 
0.042088  0.869615 
0.043646  0.897873 
0.045205  0.925820 
0.046764  0.953462 
0.048323  0.980806 
0.049882  1.007861 
0.051440  1.034634 
0.052999  1.061137 
0.054558  1.087379 
0.056117  1.113371 
0.057675  1.139124 
0.059234  1.164649 
0.060793  1.189958 
0.062352  1.215063 
0.063911  1.239975 
0.065469  1.264704 
0.067028  1.289261 
0.068587  1.313655 
0.070146  1.337895 
0.071705  1.361987 
0.073263  1.385937 
0.074822  1.409748 
0.076381  1.433422 
0.077940  1.456958 
0.079499  1.480351 
0.081058  1.503595 
0.082616  1.526681 
0.084175  1.549597 
0.085734  1.572327 
0.087293  1.594852 
0.088851  1.617152 
0.090410  1.639205 
0.091969  1.660985 
0.093528  1.682467 
0.095087  1.703625 
0.096645  1.724433 
0.098204  1.744867 
0.099763  1.764904 
0.101322  1.784523 
0.102881  1.803708 
0.104440  1.822445 
0.105998  1.840724 
0.107557  1.858538 
0.109116  1.875883 
0.110675  1.892758 
0.112233  1.909165 
0.113792  1.925105 
0.115351  1.940581 
0.116910  1.955593 
0.118469  1.970145 
0.120027  1.984234 
0.121586  1.997858 
0.123145  2.011013 
0.124704  2.023691 
0.126263  2.035880 
0.127822  2.047565 
0.129380  2.058725 
0.130939  2.069330 
0.132498  2.079337 
0.134057  2.088683 
0.135615  2.097268 
0.137174  2.104936 
0.138733  2.111432 
0.140292  2.116367 
0.141851  2.119266 
0.143409  2.119809 
0.144968  2.118125 
0.146527  2.114701 
0.148086  2.110045 
0.149645  2.104516 
0.151203  2.098335 
0.152762  2.091637 
0.154321  2.084564 
0.155880  2.078855 


0.000000  -0.000992 
0.001559  0.049376 
0.003118  0.098713 
0.004676  0.148016 
0.006235  0.197261 
0.007794  0.246429 
0.009353  0.295500 
0.010912  0.344455 
0.012470  0.393275 
0.014029  0.441941 
0.015588  0.490434 
0.017147  0.538736 
0.018706  0.586829 
0.020264  0.634694 
0.021823  0.682314 
0.023382  0.729672 
0.024941  0.776751 
0.026500  0.823535 
0.028058  0.870009 
0.029617  0.916156 
0.031176  0.961963 
0.032735  1.007417 
0.034294  1.052503 
0.035852  1.097211 
0.037411  1.141529 
0.038970  1.185447 
0.040529  1.228954 
0.042088  1.272044 
0.043646  1.314708 
0.045205  1.356939 
0.046764  1.398731 
0.048323  1.440078 
0.049882  1.480976 
0.051440  1.521416 
0.052999  1.561392 
0.054558  1.600892 
0.056117  1.639900 
0.057675  1.678391 
0.059234  1.716319 
0.060793  1.753608 
0.062352  1.790114 
0.063911  1.825555 
0.065469  1.859329 
0.067028  1.890088 
0.068587  1.915098 
0.070146  1.931443 
0.071705  1.940143 
0.073263  1.944700 
0.074822  1.947429 
0.076381  1.949410 
0.077940  1.951155 
0.079499  1.952933 
0.081058  1.954905 
0.082616  1.957180 
0.084175  1.959833 
0.085734  1.962925 
0.087293  1.966504 
0.088851  1.970606 
0.090410  1.975261 
0.091969  1.980489 
0.093528  1.986302 
0.095087  1.992705 
0.096645  1.999692 
0.098204  2.007246 
0.099763  2.015342 
0.101322  2.023943 
0.102881  2.033001 
0.104440  2.042457 
0.105998  2.052243 
0.107557  2.062281 
0.109116  2.072484 
0.110675  2.082758 
0.112233  2.093004 
0.113792  2.103121 
0.115351  2.113002 
0.116910  2.122543 
0.118469  2.131638 
0.120027  2.140180 
0.121586  2.148063 
0.123145  2.155175 
0.124704  2.161399 
0.126263  2.166606 
0.127822  2.170657 
0.129380  2.173417 
0.130939  2.174791 
0.132498  2.174791 
0.134057  2.173588 
0.135615  2.171503 
0.137174  2.168954 
0.138733  2.166433 
0.140292  2.164504 
0.141851  2.163770 
0.143409  2.164631 
0.144968  2.167009 
0.146527  2.170448 
0.148086  2.174459 
0.149645  2.178690 
0.151203  2.182925 
0.152762  2.187033 
0.154321  2.190898 
0.155880  2.193623 


0.000000  1.992307 
0.001559  1.992306 
0.003118  1.992302 
0.004676  1.992294 
0.006235  1.992281 
0.007794  1.992261 
0.009353  1.992232 
0.010912  1.992192 
0.012470  1.992138 
0.014029  1.992066 
0.015588  1.991973 
0.017147  1.991856 
0.018706  1.991712 
0.020264  1.991536 
0.021823  1.991326 
0.023382  1.991077 
0.024941  1.990786 
0.026500  1.990450 
0.028058  1.990065 
0.029617  1.989628 
0.031176  1.989137 
0.032735  1.988589 
0.034294  1.987982 
0.035852  1.987314 
0.037411  1.986584 
0.038970  1.985792 
0.040529  1.984938 
0.042088  1.984024 
0.043646  1.983053 
0.045205  1.982028 
0.046764  1.980956 
0.048323  1.979844 
0.049882  1.978704 
0.051440  1.977549 
0.052999  1.976399 
0.054558  1.975277 
0.056117  1.974218 
0.057675  1.973267 
0.059234  1.972491 
0.060793  1.971996 
0.062352  1.971952 
0.063911  1.972676 
0.065469  1.974803 
0.067028  1.979719 
0.068587  1.990197 
0.070146  2.009195 
0.071705  2.035735 
0.073263  2.066357 
0.074822  2.098790 
0.076381  2.131993 
0.077940  2.165494 
0.079499  2.199054 
0.081058  2.232529 
0.082616  2.265791 
0.084175  2.298613 
0.085734  2.329986 
0.087293  2.350108 
0.088851  2.351217 
0.090410  2.349018 
0.091969  2.346115 
0.093528  2.342847 
0.095087  2.339304 
0.096645  2.335516 
0.098204  2.331501 
0.099763  2.327266 
0.101322  2.322819 
0.102881  2.318168 
0.104440  2.313319 
0.105998  2.308285 
0.107557  2.303075 
0.109116  2.297706 
0.110675  2.292194 
0.112233  2.286559 
0.113792  2.280824 
0.115351  2.275017 
0.116910  2.269168 
0.118469  2.263316 
0.120027  2.257504 
0.121586  2.251787 
0.123145  2.246234 
0.124704  2.240931 
0.126263  2.235989 
0.127822  2.231543 
0.129380  2.227739 
0.130939  2.224699 
0.132498  2.222460 
0.134057  2.220926 
0.135615  2.219895 
0.137174  2.219127 
0.138733  2.218411 
0.140292  2.217594 
0.141851  2.216580 
0.143409  2.215310 
0.144968  2.213758 
0.146527  2.211913 
0.148086  2.209775 
0.149645  2.207352 
0.151203  2.204654 
0.152762  2.201701 
0.154321  2.198548 
0.155880  2.196063 


0.000000  2.189794 
0.001559  2.190107 
0.003118  2.191044 
0.004676  2.192595 
0.006235  2.194749 
0.007794  2.197487 
0.009353  2.200787 
0.010912  2.204620 
0.012470  2.208955 
0.014029  2.213758 
0.015588  2.218989 
0.017147  2.224607 
0.018706  2.230568 
0.020264  2.236827 
0.021823  2.243337 
0.023382  2.250050 
0.024941  2.256917 
0.026500  2.263890 
0.028058  2.270923 
0.029617  2.277968 
0.031176  2.284980 
0.032735  2.291917 
0.034294  2.298738 
0.035852  2.305404 
0.037411  2.311878 
0.038970  2.318130 
0.040529  2.324128 
0.042088  2.329846 
0.043646  2.335263 
0.045205  2.340358 
0.046764  2.345115 
0.048323  2.349522 
0.049882  2.353570 
0.051440  2.357254 
0.052999  2.360569 
0.054558  2.363518 
0.056117  2.366101 
0.057675  2.368326 
0.059234  2.370199 
0.060793  2.371730 
0.062352  2.372929 
0.063911  2.373809 
0.065469  2.374383 
0.067028  2.374664 
0.068587  2.374666 
0.070146  2.374403 
0.071705  2.373889 
0.073263  2.373137 
0.074822  2.372159 
0.076381  2.370970 
0.077940  2.369584 
0.079499  2.368019 
0.081058  2.366303 
0.082616  2.364500 
0.084175  2.362794 
0.085734  2.362166 
0.087293  2.372394 
0.088851  2.401217 
0.090410  2.432908 
0.091969  2.464835 
0.093528  2.496626 
0.095087  2.528148 
0.096645  2.559295 
0.098204  2.589920 
0.099763  2.619703 
0.101322  2.647679 
0.102881  2.670106 
0.104440  2.679965 
0.105998  2.681643 
0.107557  2.681282 
0.109116  2.680590 
0.110675  2.680051 
0.112233  2.679852 
0.113792  2.680084 
0.115351  2.680800 
0.116910  2.682034 
0.118469  2.683806 
0.120027  2.686130 
0.121586  2.689011 
0.123145  2.692446 
0.124704  2.696426 
0.126263  2.700932 
0.127822  2.705939 
0.129380  2.711415 
0.130939  2.717320 
0.132498  2.723609 
0.134057  2.730232 
0.135615  2.737135 
0.137174  2.744262 
0.138733  2.751557 
0.140292  2.758964 
0.141851  2.766427 
0.143409  2.773895 
0.144968  2.781320 
0.146527  2.788659 
0.148086  2.795872 
0.149645  2.802927 
0.151203  2.809796 
0.152762  2.816457 
0.154321  2.822893 
0.155880  2.828999 


0.000000  2.958460 
0.001559  2.958314 
0.003118  2.957901 
0.004676  2.957284 
0.006235  2.956539 
0.007794  2.955744 
0.009353  2.954962 
0.010912  2.954247 
0.012470  2.953638 
0.014029  2.953166 
0.015588  2.952858 
0.017147  2.952732 
0.018706  2.952802 
0.020264  2.953080 
0.021823  2.953570 
0.023382  2.954272 
0.024941  2.955173 
0.026500  2.956236 
0.028058  2.957346 
0.029617  2.958088 
0.031176  2.957004 
0.032735  2.953005 
0.034294  2.947627 
0.035852  2.941781 
0.037411  2.935742 
0.038970  2.929621 
0.040529  2.923476 
0.042088  2.917341 
0.043646  2.911238 
0.045205  2.905178 
0.046764  2.899166 
0.048323  2.893203 
0.049882  2.887282 
0.051440  2.881397 
0.052999  2.875536 
0.054558  2.869688 
0.056117  2.863840 
0.057675  2.857978 
0.059234  2.852089 
0.060793  2.846163 
0.062352  2.840189 
0.063911  2.834159 
0.065469  2.828069 
0.067028  2.821916 
0.068587  2.815701 
0.070146  2.809427 
0.071705  2.803101 
0.073263  2.796734 
0.074822  2.790336 
0.076381  2.783924 
0.077940  2.777514 
0.079499  2.771126 
0.081058  2.764782 
0.082616  2.758503 
0.084175  2.752315 
0.085734  2.746244 
0.087293  2.740317 
0.088851  2.734565 
0.090410  2.729019 
0.091969  2.723716 
0.093528  2.718697 
0.095087  2.714018 
0.096645  2.709756 
0.098204  2.706054 
0.099763  2.703229 
0.101322  2.702244 
0.102881  2.706841 
0.104440  2.724035 
0.105998  2.749432 
0.107557  2.776873 
0.109116  2.804625 
0.110675  2.832143 
0.112233  2.859107 
0.113792  2.885050 
0.115351  2.908515 
0.116910  2.923874 
0.118469  2.927033 
0.120027  2.925410 
0.121586  2.922563 
0.123145  2.919308 
0.124704  2.915884 
0.126263  2.912381 
0.127822  2.908833 
0.129380  2.905253 
0.130939  2.901643 
0.132498  2.897996 
0.134057  2.894305 
0.135615  2.890556 
0.137174  2.886734 
0.138733  2.882825 
0.140292  2.878810 
0.141851  2.874671 
0.143409  2.870391 
0.144968  2.865950 
0.146527  2.861331 
0.148086  2.856518 
0.149645  2.851495 
0.151203  2.846250 
0.152762  2.840772 
0.154321  2.835055 
0.155880  2.829191 


0.000000  2.981579 
0.001559  2.981808 
0.003118  2.982468 
0.004676  2.983482 
0.006235  2.984753 
0.007794  2.986173 
0.009353  2.987635 
0.010912  2.989030 
0.012470  2.990251 
0.014029  2.991181 
0.015588  2.991702 
0.017147  2.991697 
0.018706  2.991059 
0.020264  2.989707 
0.021823  2.987602 
0.023382  2.984754 
0.024941  2.981228 
0.026500  2.977146 
0.028058  2.972723 
0.029617  2.968477 
0.031176  2.965964 
0.032735  2.966357 
0.034294  2.968184 
0.035852  2.970588 
0.037411  2.973331 
0.038970  2.976324 
0.040529  2.979522 
0.042088  2.982888 
0.043646  2.986391 
0.045205  2.990000 
0.046764  2.993683 
0.048323  2.997407 
0.049882  3.001134 
0.051440  3.004828 
0.052999  3.008448 
0.054558  3.011951 
0.056117  3.015292 
0.057675  3.018427 
0.059234  3.021312 
0.060793  3.023904 
0.062352  3.026169 
0.063911  3.028076 
0.065469  3.029604 
0.067028  3.030740 
0.068587  3.031481 
0.070146  3.031830 
0.071705  3.031793 
0.073263  3.031384 
0.074822  3.030613 
0.076381  3.029497 
0.077940  3.028048 
0.079499  3.026282 
0.081058  3.024216 
0.082616  3.021867 
0.084175  3.019252 
0.085734  3.016391 
0.087293  3.013305 
0.088851  3.010014 
0.090410  3.006540 
0.091969  3.002907 
0.093528  2.999136 
0.095087  2.995249 
0.096645  2.991269 
0.098204  2.987217 
0.099763  2.983115 
0.101322  2.978981 
0.102881  2.974838 
0.104440  2.970706 
0.105998  2.966608 
0.107557  2.962571 
0.109116  2.958637 
0.110675  2.954870 
0.112233  2.951410 
0.113792  2.948636 
0.115351  2.947949 
0.116910  2.954940 
0.118469  2.973669 
0.120027  2.996689 
0.121586  3.020414 
0.123145  3.043997 
0.124704  3.067169 
0.126263  3.089809 
0.127822  3.111845 
0.129380  3.133228 
0.130939  3.153911 
0.132498  3.173854 
0.134057  3.193012 
0.135615  3.211341 
0.137174  3.228797 
0.138733  3.245334 
0.140292  3.260913 
0.141851  3.275507 
0.143409  3.289104 
0.144968  3.301714 
0.146527  3.313372 
0.148086  3.324135 
0.149645  3.334073 
0.151203  3.343263 
0.152762  3.351782 
0.154321  3.359695 
0.155880  3.366690 


0.000000  3.134021 
0.001559  3.133508 
0.003118  3.132015 
0.004676  3.129664 
0.006235  3.126619 
0.007794  3.123058 
0.009353  3.119157 
0.010912  3.115087 
0.012470  3.111013 
0.014029  3.107105 
0.015588  3.103529 
0.017147  3.100446 
0.018706  3.098006 
0.020264  3.096326 
0.021823  3.095485 
0.023382  3.095509 
0.024941  3.096373 
0.026500  3.098013 
0.028058  3.100335 
0.029617  3.103231 
0.031176  3.106578 
0.032735  3.110240 
0.034294  3.114059 
0.035852  3.117837 
0.037411  3.121321 
0.038970  3.124214 
0.040529  3.126230 
0.042088  3.127226 
0.043646  3.127269 
0.045205  3.126583 
0.046764  3.125424 
0.048323  3.124009 
0.049882  3.122508 
0.051440  3.121048 
0.052999  3.119727 
0.054558  3.118625 
0.056117  3.117808 
0.057675  3.117331 
0.059234  3.117241 
0.060793  3.117571 
0.062352  3.118347 
0.063911  3.119580 
0.065469  3.121269 
0.067028  3.123399 
0.068587  3.125947 
0.070146  3.128879 
0.071705  3.132157 
0.073263  3.135740 
0.074822  3.139589 
0.076381  3.143664 
0.077940  3.147931 
0.079499  3.152361 
0.081058  3.156925 
0.082616  3.161602 
0.084175  3.166372 
0.085734  3.171218 
0.087293  3.176128 
0.088851  3.181090 
0.090410  3.186095 
0.091969  3.191136 
0.093528  3.196206 
0.095087  3.201302 
0.096645  3.206420 
0.098204  3.211558 
0.099763  3.216714 
0.101322  3.221890 
0.102881  3.227087 
0.104440  3.232305 
0.105998  3.237550 
0.107557  3.242823 
0.109116  3.248131 
0.110675  3.253477 
0.112233  3.258870 
0.113792  3.264315 
0.115351  3.269821 
0.116910  3.275396 
0.118469  3.281050 
0.120027  3.286793 
0.121586  3.292637 
0.123145  3.298595 
0.124704  3.304682 
0.126263  3.310915 
0.127822  3.317313 
0.129380  3.323899 
0.130939  3.330698 
0.132498  3.337740 
0.134057  3.345054 
0.135615  3.352675 
0.137174  3.360631 
0.138733  3.368941 
0.140292  3.377587 
0.141851  3.386447 
0.143409  3.394981 
0.144968  3.400676 
0.146527  3.400120 
0.148086  3.396424 
0.149645  3.391648 
0.151203  3.386244 
0.152762  3.380335 
0.154321  3.373954 
0.155880  3.367463 


0.000000  3.180407 
0.001559  3.180586 
0.003118  3.181088 
0.004676  3.181816 
0.006235  3.182648 
0.007794  3.183471 
0.009353  3.184187 
0.010912  3.184726 
0.012470  3.185041 
0.014029  3.185100 
0.015588  3.184889 
0.017147  3.184403 
0.018706  3.183646 
0.020264  3.182630 
0.021823  3.181371 
0.023382  3.179891 
0.024941  3.178220 
0.026500  3.176389 
0.028058  3.174440 
0.029617  3.172423 
0.031176  3.170406 
0.032735  3.168474 
0.034294  3.166749 
0.035852  3.165399 
0.037411  3.164654 
0.038970  3.164801 
0.040529  3.166114 
0.042088  3.168730 
0.043646  3.172574 
0.045205  3.177416 
0.046764  3.182993 
0.048323  3.189073 
0.049882  3.195470 
0.051440  3.202037 
0.052999  3.208649 
0.054558  3.215198 
0.056117  3.221592 
0.057675  3.227752 
0.059234  3.233616 
0.060793  3.239148 
0.062352  3.244333 
0.063911  3.249185 
0.065469  3.253741 
0.067028  3.258055 
0.068587  3.262194 
0.070146  3.266227 
0.071705  3.270224 
0.073263  3.274248 
0.074822  3.278355 
0.076381  3.282589 
0.077940  3.286983 
0.079499  3.291560 
0.081058  3.296334 
0.082616  3.301308 
0.084175  3.306476 
0.085734  3.311827 
0.087293  3.317343 
0.088851  3.323003 
0.090410  3.328780 
0.091969  3.334646 
0.093528  3.340572 
0.095087  3.346527 
0.096645  3.352480 
0.098204  3.358399 
0.099763  3.364254 
0.101322  3.370015 
0.102881  3.375653 
0.104440  3.381138 
0.105998  3.386445 
0.107557  3.391547 
0.109116  3.396418 
0.110675  3.401036 
0.112233  3.405378 
0.113792  3.409422 
0.115351  3.413149 
0.116910  3.416539 
0.118469  3.419575 
0.120027  3.422242 
0.121586  3.424525 
0.123145  3.426412 
0.124704  3.427891 
0.126263  3.428954 
0.127822  3.429593 
0.129380  3.429804 
0.130939  3.429584 
0.132498  3.428935 
0.134057  3.427859 
0.135615  3.426367 
0.137174  3.424472 
0.138733  3.422205 
0.140292  3.419624 
0.141851  3.416886 
0.143409  3.414546 
0.144968  3.415107 
0.146527  3.421950 
0.148086  3.431901 
0.149645  3.442824 
0.151203  3.454170 
0.152762  3.465721 
0.154321  3.477340 
0.155880  3.488722 


0.000000  3.347096 
0.001559  3.347110 
0.003118  3.347149 
0.004676  3.347211 
0.006235  3.347289 
0.007794  3.347379 
0.009353  3.347470 
0.010912  3.347554 
0.012470  3.347621 
0.014029  3.347663 
0.015588  3.347670 
0.017147  3.347635 
0.018706  3.347551 
0.020264  3.347413 
0.021823  3.347218 
0.023382  3.346965 
0.024941  3.346654 
0.026500  3.346289 
0.028058  3.345875 
0.029617  3.345419 
0.031176  3.344930 
0.032735  3.344420 
0.034294  3.343903 
0.035852  3.343396 
0.037411  3.342918 
0.038970  3.342491 
0.040529  3.342141 
0.042088  3.341898 
0.043646  3.341796 
0.045205  3.341874 
0.046764  3.342177 
0.048323  3.342755 
0.049882  3.343666 
0.051440  3.344972 
0.052999  3.346740 
0.054558  3.349041 
0.056117  3.351944 
0.057675  3.355511 
0.059234  3.359792 
0.060793  3.364817 
0.062352  3.370595 
0.063911  3.377110 
0.065469  3.384321 
0.067028  3.392173 
0.068587  3.400595 
0.070146  3.409512 
0.071705  3.418846 
0.073263  3.428521 
0.074822  3.438469 
0.076381  3.448624 
0.077940  3.458928 
0.079499  3.469325 
0.081058  3.479769 
0.082616  3.490214 
0.084175  3.500620 
0.085734  3.510948 
0.087293  3.521163 
0.088851  3.531229 
0.090410  3.541111 
0.091969  3.550776 
0.093528  3.560189 
0.095087  3.569315 
0.096645  3.578118 
0.098204  3.586561 
0.099763  3.594607 
0.101322  3.602219 
0.102881  3.609360 
0.104440  3.615992 
0.105998  3.622082 
0.107557  3.627596 
0.109116  3.632504 
0.110675  3.636779 
0.112233  3.640400 
0.113792  3.643346 
0.115351  3.645605 
0.116910  3.647167 
0.118469  3.648026 
0.120027  3.648181 
0.121586  3.647635 
0.123145  3.646392 
0.124704  3.644461 
0.126263  3.641853 
0.127822  3.638582 
0.129380  3.634662 
